1e+08,44,29,40,30,43,35,44,18,29,30,45,37,25,23,23,32,27,42,21,36,44,30,40,41,22,24,46,33,28,40,28,32,35,33,33,34,40,30,24,31,34,30,36,35,29,38,29,24,34,33,23,34,26,30,33,31,30,33,31,35,35,30,28,32,25,38,33,32,30,29,29,25,30,31,37,40,32,33,30,41,27,39,32,27,28,25,30,33,22,25,26,25,27,40,33,36,47,29,33,24,29,35,33,23,35,38,31,30,34,28,32,22,36,42,41,33,37,33,28,20,28,42,31,21,27,47,32,35,32,33,33,36,21,29,29,37,34,18,36,32,34,33,30,34,26,27,39,31,24,25,15,40,42,30,32,26,42,37,33,15,31,27,26,40,44,31,38,28,37,29,27,31,29,27,27,31,34,30,31,31,48,32,24,37,36,35,41,34,30,29,15,35,23,43,26,25,33,27,26
44,1e+08,28,40,36,38,37,41,21,32,38,49,41,30,26,25,40,34,56,23,34,39,29,41,44,25,26,39,36,29,39,26,33,34,44,32,37,37,29,30,37,36,36,33,38,30,33,33,30,32,38,30,32,37,34,38,36,32,39,38,40,45,36,35,36,30,39,32,34,41,34,37,31,31,36,45,41,33,34,34,40,30,39,36,30,31,32,35,48,26,25,34,30,30,41,37,36,45,37,37,30,27,37,32,26,42,34,37,36,38,29,33,28,36,38,46,31,44,38,35,20,33,39,33,22,27,42,33,36,36,42,37,37,28,30,32,40,36,21,38,33,33,31,42,29,32,31,41,36,24,33,22,47,44,29,35,34,47,34,41,22,36,25,28,47,37,36,37,24,40,33,33,35,32,41,30,40,39,31,33,33,44,32,34,34,40,35,38,39,40,30,19,35,30,42,31,28,34,35,29
29,28,1e+08,34,31,36,36,33,30,37,32,32,31,30,40,37,25,25,30,28,34,31,45,34,32,35,36,32,28,35,36,21,31,27,26,35,31,35,30,25,32,28,30,24,30,30,33,29,37,27,29,27,28,35,36,28,29,31,38,31,36,31,31,28,33,34,31,34,34,39,30,37,34,41,31,33,33,31,34,38,29,30,32,25,32,27,27,34,40,38,30,34,30,35,29,28,38,29,31,22,26,29,38,35,44,31,38,30,35,39,33,31,21,30,30,33,29,31,36,33,23,29,30,23,23,29,30,28,23,27,31,30,32,29,34,36,29,35,33,34,29,27,41,28,28,32,25,31,30,28,29,27,30,40,28,34,27,35,32,32,27,27,19,36,31,29,28,29,24,30,30,26,35,34,31,44,32,34,32,27,36,31,31,28,36,29,32,30,33,26,43,30,32,28,29,39,33,41,31,39
40,40,34,1e+08,41,46,39,42,20,39,35,40,46,25,29,33,35,30,39,30,36,36,35,44,44,27,36,34,32,31,45,28,35,36,32,30,33,43,36,27,32,30,33,36,41,35,31,37,39,36,34,29,35,36,36,32,31,30,43,29,35,35,41,32,29,32,32,31,30,36,34,33,34,37,33,36,38,31,33,34,46,31,33,32,31,32,28,30,38,36,28,32,28,31,39,35,42,40,45,29,28,32,38,38,33,39,35,34,32,44,30,39,21,40,33,34,30,37,30,29,19,33,38,34,25,30,42,41,34,31,35,35,40,29,35,35,38,39,20,45,34,33,30,31,32,35,33,45,34,27,34,22,43,40,35,32,33,43,34,40,23,29,27,31,45,33,33,40,29,37,35,32,31,33,34,35,30,40,31,31,29,38,38,32,49,40,36,45,35,35,34,19,49,30,41,33,34,43,28,39
30,36,31,41,1e+08,43,37,35,26,35,36,38,39,38,24,34,27,30,33,29,40,34,34,38,42,28,34,36,24,33,43,29,36,36,37,36,38,43,36,32,35,34,32,41,38,32,34,40,47,37,35,34,38,37,36,29,29,38,34,33,42,34,33,34,35,36,38,40,36,36,37,38,35,38,32,39,41,36,33,36,33,32,37,33,35,35,35,36,35,35,31,29,35,44,36,38,39,35,38,28,28,35,33,43,30,39,32,41,34,38,36,42,21,32,28,37,28,40,37,37,24,35,41,31,23,37,37,40,30,31,38,34,39,33,36,42,33,39,26,41,35,28,38,36,36,30,35,37,41,29,27,26,36,36,35,35,34,39,35,42,26,28,29,32,31,28,29,36,26,40,33,38,35,35,34,33,35,42,34,31,37,42,42,34,40,36,35,34,38,35,43,26,38,28,29,36,32,36,30,38
43,38,36,46,43,1e+08,37,42,23,41,28,40,33,26,25,25,31,32,36,25,36,40,35,45,39,21,34,45,30,30,35,25,32,32,36,34,35,40,35,30,31,28,34,37,40,31,35,34,34,36,30,30,34,32,33,33,31,34,41,31,34,37,30,31,30,35,34,37,30,31,30,34,35,33,30,33,37,30,31,34,41,28,28,34,32,30,32,31,36,32,32,32,29,27,37,35,38,38,35,33,28,31,39,36,33,34,31,33,31,47,23,41,23,31,34,42,33,36,28,30,18,31,34,34,20,33,46,44,32,32,33,34,47,27,33,35,34,31,19,46,31,30,32,32,33,34,28,43,31,30,31,20,42,42,33,28,25,42,32,44,23,33,26,33,44,36,30,34,26,34,35,33,32,30,36,38,31,41,28,32,30,41,38,29,47,40,36,43,35,29,29,19,43,31,44,30,31,38,28,40
35,37,36,39,37,37,1e+08,38,24,38,28,34,38,30,37,35,30,31,33,25,40,33,39,36,42,29,30,42,25,30,32,26,30,34,34,34,31,36,37,31,31,31,30,35,34,27,31,34,31,24,29,29,34,31,31,28,34,35,36,31,40,31,32,33,28,35,32,28,32,31,32,30,33,35,31,31,37,33,34,30,41,31,33,22,34,25,27,31,36,40,25,32,30,28,35,34,34,31,34,26,26,29,39,31,41,30,36,32,32,37,35,39,23,32,31,36,30,36,33,35,24,31,31,31,26,28,38,38,32,30,33,33,34,30,41,42,32,34,24,38,30,33,34,31,28,32,27,35,31,28,27,19,30,39,35,32,25,39,33,39,29,32,27,44,33,37,28,32,27,31,32,29,33,34,29,37,35,40,31,31,32,34,38,27,42,32,39,39,37,30,32,28,42,29,29,28,35,42,28,37
44,41,33,42,35,42,38,1e+08,22,36,33,40,39,22,29,28,36,30,39,23,33,40,32,42,44,27,33,45,35,28,39,25,28,26,30,27,31,41,32,26,28,26,26,37,35,28,25,32,30,30,29,25,30,30,29,30,27,25,46,26,43,38,28,29,29,29,37,26,25,34,30,34,29,29,27,33,34,25,26,29,43,27,29,30,30,30,26,29,47,29,24,26,29,25,32,30,33,40,33,30,27,31,38,27,35,32,38,28,30,45,23,32,27,43,35,42,29,33,29,25,19,25,32,28,24,24,52,39,33,30,27,30,42,26,34,35,34,29,21,41,26,34,24,28,27,29,27,45,29,27,27,19,43,47,29,29,28,52,32,44,25,33,27,33,43,37,27,35,24,33,27,28,25,27,28,37,28,40,29,30,27,35,38,28,43,35,39,45,31,26,29,23,42,28,37,25,26,39,29,33
18,21,30,20,26,23,24,22,1e+08,21,38,23,24,51,27,33,16,33,18,42,22,19,30,23,21,46,27,19,18,43,28,24,37,24,33,40,24,25,25,33,47,39,33,25,23,36,38,25,26,24,36,34,32,43,33,32,37,38,21,36,22,20,29,44,41,34,31,38,39,38,30,32,34,31,35,31,32,24,41,36,20,34,32,38,28,35,37,33,24,25,32,38,38,35,27,37,29,23,26,30,37,33,20,24,22,41,21,31,42,21,42,29,21,14,14,20,39,23,29,35,34,44,30,38,24,33,23,23,32,36,29,40,20,40,24,27,34,26,30,21,36,21,35,34,32,34,34,23,34,42,34,44,20,26,24,39,33,19,26,25,33,34,26,34,19,20,39,24,27,34,36,31,37,37,32,34,39,29,36,35,41,21,24,35,24,28,31,19,25,32,31,33,19,28,16,39,38,21,39,29
29,32,37,39,35,41,38,36,21,1e+08,30,30,30,29,33,34,30,27,32,25,40,40,35,31,41,23,34,35,25,28,37,24,31,29,29,32,32,32,30,33,31,27,31,34,33,30,34,33,32,28,31,29,31,34,33,30,30,35,38,32,34,27,33,34,29,33,29,38,33,34,36,31,32,36,23,29,33,35,30,38,36,29,28,28,33,31,31,33,34,37,29,33,32,31,31,30,31,30,34,26,30,30,37,35,44,27,37,28,34,39,28,33,21,34,30,36,24,33,29,33,23,30,30,29,25,29,31,36,26,29,33,31,33,27,38,31,32,36,23,40,27,34,29,29,32,34,29,39,27,28,31,21,31,37,37,30,30,34,36,39,25,27,24,37,31,34,25,32,27,29,30,33,35,36,27,37,36,34,29,31,38,28,36,34,40,30,37,32,33,25,36,23,37,30,32,30,32,42,26,34
30,38,32,35,36,28,28,33,38,30,1e+08,36,35,46,27,33,28,43,31,39,32,26,32,30,34,36,27,28,30,46,43,28,43,32,39,38,39,34,28,33,36,37,33,33,40,31,46,30,32,28,44,34,39,41,49,35,40,34,30,37,35,32,39,36,37,37,36,43,41,40,45,42,29,30,42,34,38,38,48,43,31,35,32,38,37,32,42,29,34,32,29,36,30,38,35,34,31,35,38,35,36,34,33,41,26,46,34,36,41,31,33,37,21,29,24,30,44,39,38,35,32,33,38,36,23,35,34,34,37,41,40,40,28,35,31,26,34,37,30,35,37,29,41,36,38,36,37,30,37,35,34,38,35,38,32,41,41,34,32,33,35,36,29,33,36,25,37,38,26,41,33,38,45,34,43,34,40,34,37,37,36,36,30,41,29,33,45,31,36,36,35,29,27,27,31,38,33,30,49,34
45,49,32,40,38,40,34,40,23,30,36,1e+08,38,31,23,22,41,31,50,21,34,40,32,48,40,21,30,41,42,33,38,27,37,33,37,31,38,42,28,32,37,38,40,33,39,31,37,34,29,35,34,27,36,32,34,32,35,31,40,32,35,47,32,32,27,27,38,33,30,37,33,33,35,36,33,42,39,27,32,32,36,31,38,32,31,35,29,33,43,24,28,32,28,31,44,36,40,43,36,38,34,30,35,31,30,37,35,33,30,42,30,29,26,38,43,38,33,40,32,25,16,29,39,32,24,27,52,41,36,36,35,33,39,24,29,30,40,32,21,48,33,30,36,39,31,28,29,38,33,28,26,18,46,39,33,39,36,46,41,35,20,35,26,26,46,37,34,35,26,33,34,28,35,36,36,34,35,42,31,37,32,47,36,30,31,41,37,44,38,32,29,17,37,28,43,29,31,35,31,34
37,41,31,46,39,33,38,39,24,30,35,38,1e+08,32,21,33,33,31,38,27,39,32,31,42,39,28,35,31,27,37,40,28,40,40,34,34,38,39,34,34,35,35,33,37,43,28,33,38,40,37,34,31,35,40,39,35,33,36,38,33,33,32,39,34,33,35,38,38,35,37,35,36,38,34,33,38,41,38,40,36,36,35,37,34,37,38,33,40,36,38,29,35,29,36,41,38,36,33,41,33,30,39,31,39,27,39,34,40,37,36,32,40,28,32,30,34,36,42,40,32,22,32,40,33,24,31,40,37,36,33,42,38,38,33,32,31,40,37,25,41,34,35,38,35,33,37,33,36,35,31,38,26,41,37,36,37,32,36,38,33,28,37,25,27,39,34,36,43,26,34,36,35,38,39,35,37,35,37,37,36,38,43,41,29,37,40,36,35,47,40,38,24,34,28,40,35,39,37,39,31
25,30,30,25,38,26,30,22,51,29,46,31,32,1e+08,35,41,18,40,30,43,31,21,34,28,27,42,30,22,23,49,31,27,40,30,35,44,36,29,26,37,44,40,35,24,29,37,46,33,41,28,37,34,38,48,46,45,39,45,27,40,31,25,34,46,47,37,36,51,48,39,43,38,38,37,36,35,34,38,46,40,23,38,34,39,31,38,41,36,27,27,34,39,36,41,30,41,32,32,36,37,44,35,23,36,28,41,28,36,48,27,41,35,22,22,20,27,42,33,38,40,36,41,38,34,25,33,30,29,38,40,39,37,28,41,26,31,32,39,32,29,41,22,43,40,36,39,32,23,43,40,38,46,28,32,27,44,36,26,28,30,35,41,31,40,26,26,36,33,26,36,38,39,47,45,38,41,43,33,42,35,46,31,29,42,28,29,35,23,31,38,40,38,30,32,26,39,40,27,47,34
23,26,40,29,24,25,37,29,27,33,27,23,21,35,1e+08,34,27,22,23,34,22,29,40,25,27,28,33,29,22,27,24,17,28,21,26,35,30,23,31,22,35,29,28,22,22,28,32,32,36,20,31,27,26,29,32,29,26,29,27,34,22,23,25,23,29,32,25,34,29,35,32,33,26,39,28,25,22,32,31,30,27,28,27,24,28,27,28,27,32,25,22,29,27,32,21,30,29,27,26,23,29,27,32,35,43,27,27,27,29,28,27,26,20,29,32,26,30,18,27,27,31,26,23,25,23,27,28,24,23,22,32,28,24,27,28,35,28,34,28,29,26,25,35,32,25,28,23,25,37,27,26,25,26,26,23,32,25,29,19,27,31,22,25,43,26,28,24,18,23,29,28,22,36,31,33,33,33,29,24,24,32,19,28,32,28,18,32,27,28,26,31,30,29,25,26,26,31,34,29,35
23,25,37,33,34,25,35,28,33,34,33,22,33,41,34,1e+08,19,32,28,35,40,20,34,25,35,37,40,24,19,38,38,20,35,28,32,36,32,34,32,28,37,32,29,27,40,30,37,38,42,26,31,31,30,40,36,34,29,40,31,37,40,18,35,28,34,39,32,35,35,40,36,36,34,35,29,30,36,42,33,41,29,30,32,25,38,33,35,29,29,39,28,32,29,36,34,32,38,26,35,23,27,34,28,38,32,29,33,37,36,33,34,39,24,25,18,33,33,29,37,34,41,34,31,32,26,27,27,38,19,28,41,28,34,32,42,39,28,40,37,29,32,29,38,30,31,35,30,29,39,28,34,33,28,33,35,32,26,28,27,32,41,26,21,33,23,24,26,34,24,32,29,37,35,35,31,39,39,34,33,31,37,28,30,28,28,29,32,27,32,33,39,41,28,25,24,38,35,33,36,32
32,40,25,35,27,31,30,36,16,30,28,41,33,18,27,19,1e+08,29,39,17,23,37,39,35,37,20,20,45,50,22,32,22,27,28,32,21,30,27,30,28,22,25,30,30,29,29,27,25,20,26,31,31,27,23,26,27,26,25,35,29,29,44,29,25,20,20,26,25,27,29,24,25,27,29,34,32,32,23,23,21,35,25,30,28,28,26,27,26,42,26,24,27,27,20,30,27,29,34,30,33,28,21,34,24,36,31,33,22,24,27,21,25,30,41,30,32,36,28,24,23,18,26,31,31,17,23,40,30,32,33,29,33,27,22,26,29,32,23,14,33,25,43,27,30,29,27,26,37,26,32,25,15,33,33,28,25,31,43,35,22,14,33,28,30,46,38,32,23,26,31,29,28,22,28,32,25,26,35,25,27,28,27,26,29,30,32,32,40,24,30,22,16,35,26,39,24,27,28,26,33
27,34,25,30,30,32,31,30,33,27,43,31,31,40,22,32,29,1e+08,25,29,28,26,29,32,36,32,29,29,23,41,38,33,41,32,36,33,35,32,29,32,40,38,37,37,36,32,36,29,31,27,42,36,37,37,42,36,45,35,30,39,27,23,35,40,39,34,41,36,38,41,33,40,33,28,41,32,37,25,39,37,27,36,36,45,29,32,40,33,25,25,34,36,36,28,35,43,29,34,36,38,39,34,30,31,21,39,30,28,38,30,34,35,23,27,24,29,40,31,30,35,29,38,37,37,25,38,32,35,44,42,37,38,30,32,30,33,32,33,29,31,37,27,39,32,38,36,36,35,31,34,35,33,31,31,30,33,41,27,26,31,26,36,35,32,31,28,36,32,23,39,35,37,31,37,33,30,30,31,41,41,36,34,36,38,32,26,40,30,32,34,33,29,28,30,30,35,34,28,41,31
42,56,30,39,33,36,33,39,18,32,31,50,38,30,23,28,39,25,1e+08,22,29,38,32,42,40,24,25,40,43,30,40,29,30,32,36,29,35,40,27,31,36,35,31,34,38,33,30,33,33,35,33,30,31,33,29,34,36,31,39,33,31,46,30,30,31,26,33,30,30,32,27,31,32,35,31,40,39,24,30,33,35,33,32,31,33,34,34,33,45,27,25,29,24,31,36,37,33,40,36,40,28,30,35,27,35,36,33,37,34,39,27,31,28,38,38,34,35,34,33,30,17,25,33,34,24,29,46,35,36,33,36,28,38,25,31,34,36,33,20,35,31,32,32,35,30,30,32,38,30,27,36,20,37,36,32,37,30,47,40,33,19,35,26,29,42,42,28,34,29,36,33,34,29,34,39,30,33,36,31,33,34,38,32,30,37,35,33,40,32,36,30,18,38,30,41,34,32,33,30,33
21,23,28,30,29,25,25,23,42,25,39,21,27,43,34,35,17,29,22,1e+08,31,20,29,20,27,37,31,18,19,37,29,21,35,27,31,41,27,28,26,32,36,34,29,24,27,32,36,27,36,27,32,32,29,34,37,31,32,28,23,35,27,18,32,33,35,41,34,34,35,42,40,34,27,29,31,27,28,30,37,32,20,32,30,27,31,30,36,29,21,30,29,34,34,34,28,32,33,29,30,27,32,32,24,38,26,35,27,33,36,24,30,26,17,23,19,27,29,24,29,30,38,36,28,35,25,32,23,23,26,32,30,31,26,39,32,35,25,32,36,21,37,20,35,38,30,32,31,26,31,31,28,43,24,29,24,39,37,23,23,23,36,28,26,37,21,22,33,29,24,34,33,30,38,33,27,30,34,30,34,29,31,25,21,37,23,28,27,23,27,32,36,36,24,27,18,34,35,28,40,29
36,34,34,36,40,36,40,33,22,40,32,34,39,31,22,40,23,28,29,31,1e+08,31,34,35,38,31,39,29,27,35,41,27,40,35,35,37,34,39,39,30,34,34,30,42,37,31,36,41,38,34,36,30,34,37,36,27,33,35,35,39,37,24,36,30,37,38,38,36,38,39,37,35,30,32,36,33,38,36,39,33,37,35,30,30,38,32,33,31,32,39,30,32,35,37,42,38,38,33,35,28,33,33,33,35,30,40,36,35,35,31,40,41,25,30,29,33,31,42,37,32,29,34,39,34,25,29,36,39,29,33,35,37,36,35,42,38,37,38,28,37,35,31,40,32,31,38,35,34,38,27,33,21,36,36,38,37,34,31,36,38,28,31,30,33,28,30,31,41,30,37,34,32,38,33,30,33,35,36,32,32,34,39,46,34,42,38,32,32,43,31,37,27,37,31,29,36,31,36,30,35
44,39,31,36,34,40,33,40,19,40,26,40,32,21,29,20,37,26,38,20,31,1e+08,33,38,39,21,25,50,34,22,38,23,30,27,31,28,36,32,32,28,23,25,30,35,34,32,32,27,28,30,27,26,29,27,27,31,24,30,45,25,31,41,28,25,28,28,31,29,23,29,25,31,27,31,29,33,31,27,30,31,37,26,32,30,25,29,26,31,37,27,23,27,28,26,35,27,35,39,28,30,26,28,45,32,31,31,38,29,26,35,24,31,23,41,38,34,23,31,27,24,13,25,30,28,22,28,44,32,35,28,29,31,36,20,30,33,36,29,16,36,30,33,30,33,27,27,30,45,30,26,26,16,37,41,29,31,24,42,34,28,16,29,25,32,42,38,29,31,24,30,29,29,31,31,25,28,26,39,26,30,29,37,29,27,35,31,39,38,35,28,27,18,40,28,44,24,28,30,22,39
30,29,45,35,34,35,39,32,30,35,32,32,31,34,40,34,39,29,32,29,34,33,1e+08,32,33,37,35,37,35,37,36,25,37,31,38,38,34,38,38,33,34,35,33,32,26,33,39,31,35,25,35,35,35,37,41,34,33,36,31,37,29,33,32,34,36,35,31,36,38,43,33,40,36,41,37,40,38,41,31,34,38,33,36,28,35,33,35,34,33,33,28,35,36,30,36,39,39,27,36,28,36,32,36,37,47,35,32,34,39,28,34,33,31,31,30,30,36,30,33,35,31,39,33,32,22,33,36,29,27,36,39,35,30,33,36,39,36,35,39,33,34,31,47,37,33,36,30,39,37,38,31,31,26,33,32,33,27,35,38,25,29,39,35,41,36,34,35,28,32,36,29,33,43,38,38,36,41,38,37,31,38,31,30,31,33,31,33,32,35,31,39,35,37,32,30,37,34,38,41,39
40,41,34,44,38,45,36,42,23,31,30,48,42,28,25,25,35,32,42,20,35,38,32,1e+08,49,28,30,41,38,33,40,30,32,35,39,33,36,42,32,28,31,35,31,36,41,32,38,35,28,33,32,32,37,37,30,30,30,38,39,33,36,42,36,32,31,28,35,33,30,33,34,35,36,36,32,41,37,32,40,36,37,33,38,31,30,31,28,31,37,32,29,27,29,31,39,35,36,40,40,31,33,33,35,37,26,34,37,36,30,42,33,33,22,37,37,37,35,45,35,33,18,32,36,33,21,27,51,39,36,36,39,38,42,29,24,34,41,39,15,50,31,35,40,39,31,34,32,41,35,30,32,19,46,45,34,32,29,47,40,39,18,35,31,31,46,43,36,35,26,37,33,28,35,37,35,31,35,33,35,33,36,47,36,31,41,40,43,41,37,35,34,17,41,26,43,31,32,36,29,37
41,44,32,44,42,39,42,44,21,41,34,40,39,27,27,35,37,36,40,27,38,39,33,49,1e+08,27,30,43,34,34,45,26,32,32,38,29,35,43,34,31,28,32,30,38,47,30,28,33,38,31,36,28,33,35,33,27,33,35,44,34,44,31,33,30,35,32,36,34,33,35,35,38,38,35,33,36,36,33,35,33,39,31,31,28,31,35,32,32,49,39,28,28,32,30,37,36,41,41,39,34,29,33,45,34,33,34,43,33,30,42,30,42,21,40,36,45,32,42,32,35,23,26,31,32,25,28,42,45,34,34,35,36,41,29,36,38,36,37,17,45,30,37,39,28,39,35,33,49,32,29,29,19,42,54,38,33,33,45,35,44,22,30,29,37,43,39,33,35,31,35,32,35,29,35,36,39,28,41,34,34,33,40,38,32,46,35,47,42,36,28,37,18,41,33,39,31,31,42,30,42
22,25,35,27,28,21,29,27,46,23,36,21,28,42,28,37,20,32,24,37,31,21,37,28,27,1e+08,33,25,17,47,30,23,40,30,34,39,32,24,24,36,40,41,37,24,26,37,33,29,34,20,36,33,34,39,32,37,37,39,24,35,25,19,31,39,34,34,31,46,40,38,35,37,34,36,34,33,34,31,41,42,24,36,31,36,34,33,37,34,26,24,33,37,35,37,30,38,34,26,28,31,37,34,23,36,31,36,25,29,38,22,41,32,21,21,17,24,38,24,27,35,40,37,32,39,26,37,20,24,27,37,33,39,25,38,29,31,34,24,35,24,34,22,37,36,35,33,30,24,30,42,37,41,24,27,30,41,37,24,28,26,31,33,29,36,24,23,39,25,27,33,37,32,36,38,33,35,40,26,37,34,41,21,24,36,27,25,38,21,29,32,41,35,29,27,23,37,39,30,43,31
24,26,36,36,34,34,30,33,27,34,27,30,35,30,33,40,20,29,25,31,39,25,35,30,30,33,1e+08,24,22,32,31,23,33,26,28,31,30,33,34,33,34,28,30,31,35,30,32,35,33,30,29,29,32,32,34,28,30,31,27,31,34,19,34,32,37,45,31,37,32,38,34,33,31,34,29,35,35,40,33,34,30,28,28,29,34,30,30,27,32,36,29,38,33,33,32,36,32,30,32,22,35,29,30,36,36,31,28,34,35,33,32,35,17,24,24,30,25,29,28,32,33,37,30,34,26,29,31,36,25,28,37,29,33,37,35,31,32,38,40,36,33,25,37,32,29,37,28,30,35,33,32,23,33,34,36,31,32,24,32,37,37,21,26,34,29,25,31,33,26,35,36,35,37,34,30,35,34,35,29,29,36,30,38,28,33,36,29,27,36,29,38,28,37,30,25,30,31,32,30,35
46,39,32,34,36,45,42,45,19,35,28,41,31,22,29,24,45,29,40,18,29,50,37,41,43,25,24,1e+08,38,23,34,22,26,29,31,29,28,38,31,29,28,26,24,33,33,29,27,28,27,28,27,28,30,26,26,28,32,31,44,25,36,44,29,29,24,24,36,30,26,27,28,29,29,32,29,33,34,27,26,29,41,21,29,25,25,26,23,28,44,25,23,26,25,27,34,32,36,40,28,28,27,23,44,26,37,34,39,29,29,35,23,30,28,37,41,42,27,32,28,26,19,26,36,29,19,22,42,35,31,28,31,27,38,23,33,31,31,27,13,35,26,39,28,28,27,31,24,46,31,28,27,21,36,42,28,25,24,47,37,35,19,30,24,36,44,43,26,26,25,27,31,27,27,28,28,28,27,37,23,26,29,39,33,24,42,34,40,40,31,30,27,19,36,27,40,25,25,41,25,38
33,36,28,32,24,30,25,35,18,25,30,42,27,23,22,19,50,23,43,19,27,34,35,38,34,17,22,38,1e+08,25,33,25,26,29,32,21,31,36,25,26,25,28,28,31,31,35,29,23,22,33,30,34,31,22,29,28,26,22,38,27,28,45,26,29,23,20,28,20,24,30,24,29,28,27,32,34,31,23,22,25,35,25,28,28,27,28,29,28,43,25,26,23,25,16,37,31,31,38,30,35,25,24,34,24,31,33,37,23,27,27,24,26,33,43,29,36,35,29,24,26,15,26,27,25,18,26,40,34,28,34,32,29,32,21,27,29,32,23,13,32,25,38,25,29,26,30,29,39,21,29,25,17,36,37,25,24,25,45,36,30,17,35,31,25,41,38,30,26,28,34,24,28,26,26,37,22,28,40,30,29,29,33,27,29,31,31,29,43,25,29,23,14,34,27,37,28,25,29,28,33
28,29,35,31,33,30,30,28,43,28,46,33,37,49,27,38,22,41,30,37,35,22,37,33,34,47,32,23,25,1e+08,35,30,50,31,37,44,38,36,31,34,41,36,42,28,31,40,47,35,34,28,45,38,40,53,46,44,37,50,29,46,36,29,34,46,49,40,32,51,45,43,37,41,45,39,44,37,36,38,47,47,27,42,34,45,36,38,42,37,27,31,39,39,48,39,39,42,37,27,36,40,46,39,27,37,29,46,30,41,51,27,44,35,27,24,20,35,46,38,40,43,38,44,37,45,24,35,34,33,37,40,38,47,25,39,28,32,36,40,41,35,45,25,48,39,41,38,37,30,40,44,33,43,29,32,31,45,45,26,35,30,35,44,32,32,35,27,44,33,31,46,38,36,42,44,42,37,45,37,42,45,48,33,32,40,28,32,38,29,33,42,36,40,28,31,26,47,40,31,52,34
40,39,36,45,43,35,32,39,28,37,43,38,40,31,24,38,32,38,40,29,41,38,36,40,45,30,31,34,33,35,1e+08,28,37,42,37,36,42,49,40,31,35,34,34,46,43,36,36,37,37,32,38,30,34,39,42,32,33,38,44,30,34,33,38,30,38,38,38,39,36,38,46,37,38,37,37,43,44,39,41,38,35,36,38,32,38,31,36,36,42,46,31,32,28,35,44,43,39,40,43,33,33,34,38,39,34,40,38,40,36,39,29,44,27,33,31,34,35,43,39,32,23,32,42,30,22,36,42,43,37,38,46,35,44,33,34,39,41,41,24,34,35,32,39,29,39,35,31,49,38,32,33,25,40,38,37,35,33,37,34,38,22,34,28,32,39,36,30,42,30,37,34,35,31,41,41,38,37,43,36,36,33,47,41,38,34,41,47,43,41,40,37,21,37,29,35,34,33,34,33,38
28,26,21,28,29,25,26,25,24,24,28,27,28,27,17,20,22,33,29,21,27,23,25,30,26,23,23,22,25,30,28,1e+08,32,29,32,29,30,26,23,32,29,34,34,30,28,32,30,28,26,31,34,31,35,32,30,36,31,28,25,35,28,27,25,33,27,26,29,26,34,32,28,29,36,27,29,26,30,26,27,32,26,32,28,32,26,37,30,34,25,25,34,28,32,29,27,35,29,27,32,32,27,30,26,28,20,35,25,33,29,26,31,30,23,24,23,27,30,26,27,30,21,34,31,35,29,39,26,27,30,32,30,32,26,25,25,26,28,27,21,28,32,27,30,28,34,32,34,27,33,29,31,23,28,28,26,35,32,24,28,25,20,35,33,20,24,28,29,28,33,31,32,36,27,29,30,26,28,27,34,36,31,28,26,34,25,27,28,25,23,32,26,19,23,35,24,31,30,24,31,30
32,33,31,35,36,32,30,28,37,31,43,37,40,40,28,35,27,41,30,35,40,30,37,32,32,40,33,26,26,50,37,32,1e+08,35,41,45,40,34,30,36,41,43,48,31,35,41,41,35,34,33,43,40,46,49,44,42,40,51,31,43,34,29,36,50,47,35,37,51,45,46,42,40,47,40,41,39,41,36,49,48,30,42,35,39,38,47,48,43,29,35,33,46,44,42,37,46,34,34,38,44,44,42,30,39,31,48,27,34,49,31,44,39,26,24,22,38,40,38,35,42,39,50,34,42,29,37,32,37,37,42,40,48,28,40,35,37,32,38,36,32,46,28,42,37,43,39,40,32,39,39,44,31,32,34,34,45,45,30,35,32,26,41,38,31,30,26,45,32,29,47,49,41,41,47,38,35,42,35,45,43,47,35,40,44,31,38,40,33,38,41,39,28,27,38,30,46,45,29,46,30
35,34,27,36,36,32,34,26,24,29,32,33,40,30,21,28,28,32,32,27,35,27,31,35,32,30,26,29,29,31,42,29,35,1e+08,39,39,34,33,37,34,34,38,33,37,39,32,38,40,35,35,35,38,34,35,37,34,32,35,28,38,31,26,39,32,31,33,31,39,39,37,34,39,36,35,37,41,39,37,37,33,30,31,42,32,36,31,37,38,28,32,28,31,32,34,39,36,31,35,40,33,31,38,30,37,27,37,31,37,38,26,32,38,29,29,21,31,32,45,38,31,25,34,38,35,27,34,33,34,32,34,39,33,33,33,35,29,38,35,25,34,30,30,38,36,34,38,35,32,40,33,33,26,36,32,37,41,34,31,35,33,26,35,30,32,37,27,36,37,30,35,35,33,38,33,35,29,36,31,33,33,37,37,36,32,33,40,30,30,41,41,34,26,35,31,32,38,34,35,33,33
33,44,26,32,37,36,34,30,33,29,39,37,34,35,26,32,32,36,36,31,35,31,38,39,38,34,28,31,32,37,37,32,41,39,1e+08,37,36,33,30,36,34,37,37,37,34,42,37,41,32,32,44,40,41,34,42,37,39,35,30,42,35,32,40,39,38,36,41,36,35,41,36,48,34,35,42,44,38,36,40,35,33,38,45,38,38,31,43,34,36,29,39,32,37,34,41,37,37,32,39,38,34,39,28,34,23,43,32,38,40,29,34,36,29,28,30,32,39,39,42,40,32,38,41,43,26,41,31,32,34,44,41,43,29,32,33,35,39,34,25,32,38,31,42,42,40,44,35,33,41,36,34,33,37,32,36,40,36,35,34,29,26,36,37,28,36,30,45,39,27,44,38,33,45,37,42,32,40,34,38,40,35,37,34,38,26,38,40,27,37,47,31,30,30,32,34,38,33,30,39,31
33,32,35,30,36,34,34,27,40,32,38,31,34,44,35,36,21,33,29,41,37,28,38,33,29,39,31,29,21,44,36,29,45,39,37,1e+08,38,31,32,29,45,40,35,30,33,34,49,38,38,26,41,38,38,47,44,35,37,46,30,43,34,22,35,36,43,41,49,47,47,43,43,37,43,38,37,38,40,41,48,44,29,30,41,40,34,37,42,38,31,29,32,41,38,44,37,39,35,32,35,36,37,33,29,43,30,43,34,39,47,26,38,37,21,24,27,33,40,39,41,34,33,40,37,41,28,33,32,30,42,36,40,41,31,43,34,34,34,44,36,30,46,26,48,43,35,41,36,27,45,33,34,40,32,30,36,49,39,27,38,31,29,35,27,43,29,26,37,31,24,40,37,36,51,42,36,35,46,34,43,37,42,41,36,44,32,33,32,29,38,37,47,30,27,30,29,40,41,29,45,34
34,37,31,33,38,35,31,31,24,32,39,38,38,36,30,32,30,35,35,27,34,36,34,36,35,32,30,28,31,38,42,30,40,34,36,38,1e+08,39,27,34,37,35,34,36,35,30,35,38,39,30,35,31,33,39,43,37,32,36,33,38,34,34,35,32,34,39,41,36,38,38,36,39,34,39,34,34,41,35,36,37,28,34,30,40,33,34,37,36,32,34,30,33,31,40,34,34,32,37,35,35,36,34,35,35,31,33,33,38,35,36,33,33,28,33,28,42,36,41,37,32,25,32,37,33,23,37,36,37,34,33,40,36,37,33,33,33,35,37,27,36,35,33,40,33,34,36,34,41,39,31,33,32,34,38,35,40,32,31,31,34,27,35,24,34,38,28,31,35,28,41,34,36,41,40,42,37,42,40,34,35,38,31,33,38,38,30,39,32,44,38,40,29,34,27,33,36,34,34,32,39
40,37,35,43,43,40,36,41,25,32,34,42,39,29,23,34,27,32,40,28,39,32,38,42,43,24,33,38,36,36,49,26,34,33,33,31,39,1e+08,33,32,36,41,30,40,37,31,39,37,39,37,35,26,30,39,36,31,33,37,37,38,39,30,39,31,36,35,36,34,35,38,36,33,31,34,33,41,41,35,36,37,39,35,33,31,35,36,36,37,37,41,34,35,30,38,42,38,35,40,42,27,34,28,36,36,37,37,35,36,33,44,30,38,30,34,27,43,36,42,40,35,21,27,40,31,20,29,45,44,29,34,38,31,42,32,37,31,31,43,31,41,35,30,36,32,36,38,26,45,33,32,31,24,37,40,34,34,31,32,47,43,25,34,28,29,37,35,31,40,32,31,33,35,35,38,33,31,38,41,37,35,34,42,42,37,35,39,39,39,37,32,38,25,39,32,36,36,29,41,36,40
30,29,30,36,36,35,37,32,25,30,28,28,34,26,31,32,30,29,27,26,39,32,38,32,34,24,34,31,25,31,40,23,30,37,30,32,27,33,1e+08,27,26,30,27,34,33,28,30,36,28,30,31,28,30,32,31,30,28,34,30,31,37,23,33,29,35,34,30,33,31,30,30,30,33,37,31,38,38,31,30,25,34,34,37,27,32,30,31,31,27,36,30,31,31,30,39,29,36,29,33,25,30,27,30,30,32,29,29,31,35,29,33,36,27,33,22,37,26,34,32,31,26,32,36,30,24,28,31,32,28,29,30,32,32,30,32,36,37,37,29,37,32,30,34,30,25,30,28,30,31,30,29,20,32,27,35,30,32,26,36,31,33,29,28,37,31,30,30,33,25,33,34,30,31,32,30,36,31,33,27,30,27,30,37,24,36,35,30,33,34,36,34,27,38,30,36,31,29,32,29,32
24,30,25,27,32,30,31,26,33,33,33,32,34,37,22,28,28,32,31,32,30,28,33,28,31,36,33,29,26,34,31,32,36,34,36,29,34,32,27,1e+08,41,41,42,35,33,34,31,32,29,29,40,34,41,41,34,46,42,41,26,36,29,28,37,40,40,32,32,36,45,38,34,33,43,36,32,30,35,30,28,38,26,39,32,38,36,42,44,39,30,31,40,38,42,34,39,43,33,35,33,41,36,30,26,31,29,40,28,35,43,26,43,32,24,27,22,32,33,33,35,43,29,39,37,37,26,39,32,29,36,36,31,40,31,36,31,33,33,32,28,32,38,29,37,37,40,38,37,28,30,40,46,34,31,29,33,41,38,27,31,32,27,40,31,27,29,30,38,36,35,41,42,43,32,42,33,33,31,30,36,42,42,29,25,38,31,34,35,26,30,35,34,27,30,38,29,40,42,30,46,31
31,37,32,32,35,31,31,28,47,31,36,37,35,44,35,37,22,40,36,36,34,23,34,31,28,40,34,28,25,41,35,29,41,34,34,45,37,36,26,41,1e+08,45,47,32,34,33,45,35,41,29,37,29,35,49,43,49,36,50,32,40,29,28,38,48,39,39,38,46,49,44,42,40,49,41,33,37,40,38,39,46,29,37,37,36,33,47,36,48,30,32,33,44,38,40,34,45,33,38,39,33,42,32,32,41,27,46,29,37,42,32,47,38,23,23,26,27,38,36,35,41,29,44,39,38,25,34,33,33,49,38,43,36,30,42,26,29,38,34,35,28,41,27,40,39,38,37,33,32,42,51,44,41,28,32,31,45,36,30,35,30,26,37,34,38,31,27,38,36,29,42,46,35,38,58,36,36,48,35,42,40,54,32,33,35,34,32,36,26,33,36,42,30,31,35,29,47,48,28,39,35
34,36,28,30,34,28,31,26,39,27,37,38,35,40,29,32,25,38,35,34,34,25,35,35,32,41,28,26,28,36,34,34,43,38,37,40,35,41,30,41,45,1e+08,38,33,36,36,39,32,31,34,48,35,41,43,40,39,43,43,27,43,30,30,38,45,49,35,38,50,45,42,35,39,38,34,42,38,40,36,42,46,31,41,37,43,39,39,42,38,33,27,36,42,39,40,37,45,36,36,31,40,46,34,27,36,30,44,30,33,46,31,45,36,26,20,25,33,38,38,36,39,32,49,39,40,30,39,36,29,35,43,36,45,28,40,30,33,37,35,30,35,43,32,36,37,41,34,42,31,37,40,44,32,35,33,33,47,45,32,33,29,27,45,31,32,30,34,46,34,34,46,39,41,39,41,41,32,40,37,46,38,46,36,31,41,29,36,39,26,33,36,33,26,31,36,29,46,38,33,46,33
30,36,30,33,32,34,30,26,33,31,33,40,33,35,28,29,30,37,31,29,30,30,33,31,30,37,30,24,28,42,34,34,48,33,37,35,34,30,27,42,47,38,1e+08,33,28,36,38,30,29,32,37,27,44,46,39,40,42,43,28,35,33,32,35,43,41,36,35,36,41,34,34,36,41,38,37,38,38,39,34,37,27,35,36,40,34,43,36,41,33,29,40,41,42,33,35,44,31,32,36,39,45,38,28,36,33,43,31,38,47,30,39,31,30,27,30,33,34,32,27,40,28,44,38,37,26,34,31,27,37,40,37,40,29,33,26,33,39,26,28,34,43,29,35,36,41,41,38,33,38,38,39,30,40,33,32,42,42,32,31,29,26,37,32,28,34,29,38,33,35,38,47,37,36,41,37,30,39,36,32,46,47,30,34,36,31,33,35,31,33,33,29,26,34,35,32,38,46,28,40,34
36,33,24,36,41,37,35,37,25,34,33,33,37,24,22,27,30,37,34,24,42,35,32,36,38,24,31,33,31,28,46,30,31,37,37,30,36,40,34,35,32,33,33,1e+08,39,31,31,37,31,30,33,32,33,32,34,31,29,34,37,31,36,32,33,29,30,32,36,32,30,33,29,30,31,28,28,37,39,33,33,31,43,28,30,30,33,34,29,35,40,37,34,31,27,32,37,33,33,33,38,32,29,32,36,36,29,34,40,32,30,34,33,38,28,31,29,41,31,38,35,33,23,29,38,30,26,30,38,38,35,28,37,33,36,30,34,36,37,40,19,40,31,35,32,34,33,33,33,43,33,31,32,22,36,39,35,31,32,32,39,34,24,39,28,27,32,32,31,35,28,31,30,29,28,35,32,32,30,36,32,31,31,42,38,31,33,38,36,39,38,33,35,21,37,30,34,31,30,28,31,36
35,38,30,41,38,40,34,35,23,33,40,39,43,29,22,40,29,36,38,27,37,34,26,41,47,26,35,33,31,31,43,28,35,39,34,33,35,37,33,33,34,36,28,39,1e+08,27,38,38,43,34,31,27,32,40,42,31,33,39,38,35,32,28,41,32,35,37,36,39,34,43,43,37,32,30,30,38,37,39,41,34,37,29,38,28,39,35,37,33,41,42,26,32,32,35,36,34,31,44,44,29,31,31,32,39,31,37,37,36,35,41,31,44,21,35,30,37,28,49,40,36,21,32,37,36,19,30,41,50,34,32,39,37,42,29,31,33,31,45,23,42,33,32,42,38,33,39,28,42,40,27,33,16,40,45,40,37,30,37,40,39,24,32,26,31,38,34,28,46,25,37,32,36,35,35,36,36,34,35,38,32,39,40,41,34,38,38,43,39,41,34,38,20,36,28,34,38,32,36,35,38
29,30,30,35,32,31,27,28,36,30,31,31,28,37,28,30,29,32,33,32,31,32,33,32,30,37,30,29,35,40,36,32,41,32,42,34,30,31,28,34,33,36,36,31,27,1e+08,39,35,28,32,39,38,40,39,38,37,42,32,30,40,33,31,29,40,37,34,37,39,39,40,32,38,36,31,36,33,36,27,33,40,31,41,31,37,30,37,40,35,30,28,35,37,38,33,31,39,37,33,34,41,41,36,27,29,26,43,31,40,41,29,36,35,27,30,23,30,38,28,27,39,29,40,33,37,26,39,33,29,34,38,34,46,31,35,32,34,36,28,26,27,41,24,32,37,41,36,38,29,39,38,37,28,27,28,29,40,39,32,27,26,21,39,32,31,36,34,40,30,35,44,37,41,35,37,35,30,36,35,43,38,34,30,31,38,27,32,35,26,25,37,33,26,29,36,29,37,36,28,38,34
38,33,33,31,34,35,31,25,38,34,46,37,33,46,32,37,27,36,30,36,36,32,39,38,28,33,32,27,29,47,36,30,41,38,37,49,35,39,30,31,45,39,38,31,38,39,1e+08,42,39,39,47,37,43,47,47,35,40,46,31,45,30,26,34,37,48,43,43,45,49,50,48,40,39,40,40,42,41,43,53,49,31,39,42,42,33,40,42,41,28,39,35,36,37,48,41,42,37,32,39,33,42,36,28,40,31,45,33,41,44,31,36,36,25,28,26,39,43,43,45,36,29,44,38,42,23,36,27,33,39,36,45,44,29,37,30,34,35,40,34,37,49,25,47,41,39,42,33,28,46,33,37,38,34,33,34,47,43,28,37,29,24,40,31,39,36,27,44,32,26,41,36,34,56,42,40,36,51,30,44,41,49,46,35,44,30,35,37,26,34,43,44,31,33,27,31,40,39,29,44,41
29,33,29,37,40,34,34,32,25,33,30,34,38,33,32,38,25,29,33,27,41,27,31,35,33,29,35,28,23,35,37,28,35,40,41,38,38,37,36,32,35,32,30,37,38,35,42,1e+08,40,38,33,36,36,37,34,38,32,37,33,39,32,25,40,34,30,32,37,37,41,38,42,45,34,38,36,40,41,42,40,41,33,30,41,36,37,36,34,34,29,39,32,37,36,39,34,38,33,32,42,32,36,37,33,39,32,33,32,42,31,31,35,39,23,28,19,29,32,41,46,32,32,34,39,36,27,40,31,36,31,33,38,37,31,36,35,29,36,42,28,32,36,27,43,36,31,42,31,35,42,34,39,28,37,35,40,33,30,24,41,34,27,32,27,30,32,30,33,40,26,32,39,33,41,34,37,31,34,30,32,33,42,38,43,30,30,38,37,29,41,39,37,34,30,32,30,41,35,33,28,36
24,30,37,39,47,34,31,30,26,32,32,29,40,41,36,42,20,31,33,36,38,28,35,28,38,34,33,27,22,34,37,26,34,35,32,38,39,39,28,29,41,31,29,31,43,28,39,40,1e+08,28,32,32,34,40,42,35,30,39,34,39,32,19,35,30,33,39,40,42,38,41,46,36,33,39,27,30,36,42,41,44,33,28,29,30,32,36,34,34,29,48,25,34,31,52,30,36,35,33,40,29,32,32,35,54,32,32,34,42,33,37,30,34,17,29,22,31,30,36,35,28,34,31,34,35,21,33,33,43,26,30,37,29,42,37,34,34,28,35,29,37,32,23,48,31,33,40,28,34,38,31,35,36,33,37,32,38,31,26,34,34,30,24,26,41,28,27,27,37,23,32,33,32,37,38,36,42,48,34,36,29,42,31,38,35,37,27,40,27,36,34,53,37,35,27,30,32,43,39,31,39
34,32,27,36,37,36,24,30,24,28,28,35,37,28,20,26,26,27,35,27,34,30,25,33,31,20,30,28,33,28,32,31,33,35,32,26,30,37,30,29,29,34,32,30,34,32,39,38,28,1e+08,30,35,37,35,34,30,33,29,30,34,30,28,32,32,33,28,36,28,30,38,35,36,32,34,33,35,36,36,33,30,28,33,32,34,32,32,38,29,29,31,34,29,34,33,38,37,25,31,36,34,35,32,26,32,25,38,25,37,32,32,33,28,30,26,27,30,33,32,34,36,22,33,34,35,24,33,30,32,29,33,36,32,26,27,27,29,38,32,24,32,34,26,37,34,31,37,33,26,36,26,33,24,32,28,32,32,34,30,31,30,26,33,30,26,34,29,30,40,32,33,31,33,38,28,33,28,35,31,36,35,32,36,35,36,30,36,29,29,36,33,32,21,28,28,31,40,27,27,32,29
33,38,29,34,35,30,29,29,36,31,44,34,34,37,31,31,31,42,33,32,36,27,35,32,36,36,29,27,30,45,38,34,43,35,44,41,35,35,31,40,37,48,37,33,31,39,47,33,32,30,1e+08,38,46,46,52,38,38,39,29,43,32,27,39,37,43,41,40,45,49,51,41,47,40,34,51,38,39,34,41,42,28,41,36,46,35,38,49,31,35,32,37,45,41,38,39,44,35,32,36,44,40,35,29,33,24,50,32,34,48,28,37,40,27,25,22,36,49,39,35,37,34,46,39,47,29,42,32,34,42,44,43,46,29,39,32,33,36,43,32,36,50,31,44,42,45,42,45,28,39,39,39,33,36,30,35,43,44,30,37,33,26,46,37,33,34,31,42,32,28,47,38,39,40,37,43,35,39,35,47,42,44,32,34,45,32,31,39,26,35,41,34,29,33,31,34,42,40,32,48,40
23,30,27,29,34,30,29,25,34,29,34,27,31,34,27,31,31,36,30,32,30,26,35,32,28,33,29,28,34,38,30,31,40,38,40,38,31,26,28,34,29,35,27,32,27,38,37,36,32,35,38,1e+08,35,31,43,38,35,33,28,41,29,24,37,38,29,32,35,37,39,36,34,42,31,33,40,33,32,30,35,35,30,36,36,39,35,34,42,25,27,28,38,38,37,37,32,41,31,28,38,37,37,38,29,30,28,38,27,35,35,27,29,33,32,28,16,34,43,30,31,30,30,38,35,38,30,42,30,26,32,39,37,38,30,30,31,34,36,30,28,29,34,30,33,34,36,38,38,31,36,36,36,34,28,30,28,38,38,25,28,34,27,35,38,32,33,31,38,27,33,37,34,45,37,32,45,33,33,33,36,34,31,30,26,41,32,29,34,30,31,37,33,27,28,37,27,32,33,29,39,33
34,32,28,35,38,34,34,30,32,31,39,36,35,38,26,30,27,37,31,29,34,29,35,37,33,34,32,30,31,40,34,35,46,34,41,38,33,30,30,41,35,41,44,33,32,40,43,36,34,37,46,35,1e+08,47,42,43,40,46,30,43,36,32,35,47,42,35,37,43,45,35,38,38,47,35,40,33,34,33,42,44,33,40,39,41,30,44,46,44,29,26,38,40,40,36,35,47,36,34,36,41,36,33,25,32,28,45,29,31,41,30,42,35,27,27,24,37,38,33,34,41,30,46,35,43,27,43,34,31,41,39,37,47,33,31,32,34,34,39,25,34,45,33,36,38,45,36,41,30,40,47,38,29,40,33,34,42,40,32,35,33,22,40,38,31,37,28,42,32,31,44,41,39,43,44,36,32,34,32,44,48,45,35,34,40,34,34,38,31,35,40,36,24,36,36,30,39,44,28,38,33
26,37,35,36,37,32,31,30,43,34,41,32,40,48,29,40,23,37,33,34,37,27,37,37,35,39,32,26,22,53,39,32,49,35,34,47,39,39,32,41,49,43,46,32,40,39,47,37,40,35,46,31,47,1e+08,43,46,42,58,33,44,35,24,35,45,55,44,36,58,55,42,46,40,50,42,36,39,37,45,51,52,35,43,38,44,32,43,43,40,33,37,38,48,45,38,35,48,37,40,40,39,45,39,30,42,31,47,35,42,54,35,45,36,22,21,25,34,45,37,43,45,28,51,38,43,28,31,32,37,39,39,43,42,32,39,31,38,37,44,40,34,48,29,48,45,42,47,41,35,42,43,41,34,37,37,37,46,42,30,38,37,27,47,28,35,34,29,41,33,29,39,41,45,46,46,36,38,43,34,41,37,52,35,37,41,32,34,43,31,36,41,42,28,35,34,29,54,43,33,45,36
30,34,36,36,36,33,31,29,33,33,49,34,39,46,32,36,26,42,29,37,36,27,41,30,33,32,34,26,29,46,42,30,44,37,42,44,43,36,31,34,43,40,39,34,42,38,47,34,42,34,52,43,42,43,1e+08,41,44,42,34,45,36,28,44,39,35,37,39,43,48,51,48,49,34,40,45,42,43,45,43,39,33,40,38,45,40,38,49,34,31,36,36,41,39,42,36,41,35,32,43,37,45,38,31,43,31,45,34,41,42,30,38,38,28,26,19,36,44,41,43,39,35,46,40,40,26,43,31,36,37,41,49,45,32,37,32,33,36,46,40,38,43,31,47,40,44,46,37,37,46,39,36,34,35,31,34,44,40,33,37,27,30,39,31,37,39,26,41,39,32,47,31,42,45,40,46,41,43,35,44,40,47,33,34,52,36,36,40,26,40,41,40,34,34,33,29,41,44,34,47,35
33,38,28,32,29,33,28,30,32,30,35,32,35,45,29,34,27,36,34,31,27,31,34,30,27,37,28,28,28,44,32,36,42,34,37,35,37,31,30,46,49,39,40,31,31,37,35,38,35,30,38,38,43,46,41,1e+08,40,39,29,40,35,28,33,46,36,36,36,37,44,43,32,40,46,35,37,34,33,34,30,43,28,40,36,38,33,42,40,41,30,26,38,38,37,39,31,47,28,36,37,39,40,35,29,37,27,39,25,37,42,27,41,33,25,28,25,32,37,33,35,40,31,39,40,36,30,40,33,31,38,33,36,38,33,28,30,31,34,33,27,34,41,30,37,37,39,38,36,28,41,40,38,36,37,34,32,44,36,30,29,31,28,41,30,32,32,28,39,33,31,39,41,40,33,42,39,34,34,29,34,40,49,34,30,34,28,29,35,27,33,41,36,28,29,38,31,42,46,34,39,33
31,36,29,31,29,31,34,27,37,30,40,35,33,39,26,29,26,45,36,32,33,24,33,30,33,37,30,32,26,37,33,31,40,32,39,37,32,33,28,42,36,43,42,29,33,42,40,32,30,33,38,35,40,42,44,40,1e+08,40,33,38,30,34,35,44,38,33,34,40,39,38,37,37,40,34,37,32,33,29,39,40,28,41,32,38,33,35,35,39,31,25,34,42,40,37,32,43,36,36,36,35,36,35,32,31,25,44,27,38,41,32,39,36,27,25,21,29,41,32,36,40,25,40,36,37,26,32,32,30,38,44,36,40,28,33,29,33,34,30,30,33,42,28,34,33,38,35,36,29,35,33,34,35,31,29,30,43,41,28,30,27,24,43,32,31,33,29,38,32,33,42,37,39,33,39,36,28,40,29,36,43,42,32,30,38,29,31,38,29,30,41,34,27,26,36,29,39,40,32,39,35
30,32,31,30,38,34,35,25,38,35,34,31,36,45,29,40,25,35,31,28,35,30,36,38,35,39,31,31,22,50,38,28,51,35,35,46,36,37,34,41,50,43,43,34,39,32,46,37,39,29,39,33,46,58,42,39,40,1e+08,30,38,33,29,36,49,51,40,31,57,49,40,41,39,49,46,40,37,39,39,45,58,29,38,35,42,32,46,43,43,29,37,33,44,42,42,37,46,36,38,37,38,45,36,31,40,33,37,32,38,49,33,46,38,23,25,23,40,40,43,45,44,30,46,38,39,26,38,33,43,43,36,41,45,32,40,34,36,32,40,32,35,41,29,43,40,43,37,30,34,40,40,41,34,31,34,33,40,34,26,35,35,26,46,28,34,34,31,36,36,32,43,41,43,41,49,37,36,48,32,40,36,54,35,38,39,38,34,48,28,38,35,38,30,37,36,34,48,43,32,44,31
33,39,38,43,34,41,36,46,21,38,30,40,38,27,27,31,35,30,39,23,35,45,31,39,44,24,27,44,38,29,44,25,31,28,30,30,33,37,30,26,32,27,28,37,38,30,31,33,34,30,29,28,30,33,34,29,33,30,1e+08,33,36,38,34,34,22,34,32,31,31,37,36,32,35,37,25,30,35,31,35,34,42,30,30,30,31,33,32,30,38,35,28,30,26,33,33,36,37,45,37,29,24,26,48,31,37,32,45,30,25,44,23,36,24,42,32,36,30,32,32,28,15,27,36,29,20,27,41,36,27,29,30,31,43,25,34,40,32,34,19,43,31,37,29,27,29,30,26,48,31,26,30,19,40,41,29,31,29,40,35,38,19,30,27,33,51,34,28,37,26,28,30,32,29,35,28,35,28,43,36,31,31,39,35,36,43,32,42,49,32,30,34,18,41,28,39,27,36,45,30,42
31,38,31,29,33,31,31,26,36,32,37,32,33,40,34,37,29,39,33,35,39,25,37,33,34,35,31,25,27,46,30,35,43,38,42,43,38,38,31,36,40,43,35,31,35,40,45,39,39,34,43,41,43,44,45,40,38,38,33,1e+08,31,26,41,36,37,42,38,34,52,45,38,47,38,35,43,44,40,39,39,37,31,40,37,38,41,37,45,33,33,31,37,41,38,38,32,43,34,30,36,36,39,38,31,37,30,40,33,40,39,35,36,37,29,25,22,32,41,39,38,41,32,39,38,42,24,38,30,36,37,40,38,45,32,35,33,36,37,38,36,31,42,26,44,39,45,50,35,29,40,34,37,34,29,33,34,46,39,29,38,32,27,39,32,33,35,32,43,37,34,43,39,40,45,33,43,38,45,33,49,43,46,35,35,43,33,28,38,26,37,40,38,31,32,40,28,42,41,33,43,36
35,40,36,35,42,34,40,43,22,34,35,35,33,31,22,40,29,27,31,27,37,31,29,36,44,25,34,36,28,36,34,28,34,31,35,34,34,39,37,29,29,30,33,36,32,33,30,32,32,30,32,29,36,35,36,35,30,33,36,31,1e+08,30,31,31,33,39,33,33,33,33,34,39,31,39,33,34,34,34,35,33,41,33,31,34,35,34,34,32,42,40,29,29,36,30,32,33,41,36,35,31,30,36,37,34,31,37,37,36,31,43,27,33,24,39,26,43,31,38,37,36,27,36,33,30,22,35,35,39,26,36,34,29,39,25,37,41,28,36,24,45,37,28,33,32,29,35,32,27,36,33,33,25,36,42,30,36,33,32,36,36,30,37,27,27,33,32,31,34,26,34,34,33,34,30,31,37,30,51,35,38,37,34,35,37,38,35,35,34,35,31,30,23,38,29,34,32,32,40,32,42
35,45,31,35,34,37,31,38,20,27,32,47,32,25,23,18,44,23,46,18,24,41,33,42,31,19,19,44,45,29,33,27,29,26,32,22,34,30,23,28,28,30,32,32,28,31,26,25,19,28,27,24,32,24,28,28,34,29,38,26,30,1e+08,31,28,25,23,25,26,27,29,26,28,25,28,30,39,30,25,28,29,32,32,27,31,26,27,23,27,40,23,27,27,31,18,35,31,35,39,28,29,31,24,33,22,29,32,41,30,24,36,24,29,30,35,32,31,29,32,28,27,17,27,36,27,19,22,43,26,32,32,33,33,29,21,24,31,32,26,16,37,28,28,26,31,27,28,24,37,28,30,28,18,41,33,22,27,32,44,33,26,16,39,23,24,48,38,32,31,30,33,26,26,29,35,37,28,32,36,28,32,27,32,30,29,31,30,31,41,27,38,21,15,36,21,40,30,28,27,23,31
30,36,31,41,33,30,32,28,29,33,39,32,39,34,25,35,29,35,30,32,36,28,32,36,33,31,34,29,26,34,38,25,36,39,40,35,35,39,33,37,38,38,35,33,41,29,34,40,35,32,39,37,35,35,44,33,35,36,34,41,31,31,1e+08,34,32,36,35,39,39,36,42,44,32,35,42,37,41,42,41,36,35,33,37,33,41,35,37,32,28,41,29,36,32,35,44,39,32,37,46,31,38,35,33,42,31,41,35,36,40,33,36,42,27,27,28,31,34,42,42,38,29,36,41,35,25,36,28,35,34,40,39,37,31,31,36,30,40,46,34,38,38,32,40,38,35,41,31,32,44,30,31,24,31,33,36,40,36,32,33,33,33,36,30,29,34,32,33,40,27,40,36,35,42,40,36,35,36,34,39,32,39,34,38,38,34,37,35,32,40,42,32,30,35,35,32,39,37,32,36,34
28,35,28,32,34,31,33,29,44,34,36,32,34,46,23,28,25,40,30,33,30,25,34,32,30,39,32,29,29,46,30,33,50,32,39,36,32,31,29,40,48,45,43,29,32,40,37,34,30,32,37,38,47,45,39,46,44,49,34,36,31,28,34,1e+08,41,31,31,45,47,39,35,38,45,38,35,29,37,37,45,48,31,41,28,39,36,42,40,38,28,33,37,44,42,37,38,46,32,32,34,40,43,36,30,35,28,44,25,32,47,28,47,32,24,26,25,33,42,31,30,44,29,51,34,33,25,39,30,31,35,46,43,45,29,39,31,31,36,35,32,33,45,28,34,43,37,39,38,32,38,45,41,35,33,35,30,46,43,30,31,31,24,44,38,32,32,30,39,33,32,41,43,40,38,45,36,31,40,32,41,42,49,33,31,41,26,33,39,30,33,39,32,25,29,39,24,41,44,29,42,31
32,36,33,29,35,30,28,29,41,29,37,27,33,47,29,34,20,39,31,35,37,28,36,31,35,34,37,24,23,49,38,27,47,31,38,43,34,36,35,40,39,49,41,30,35,37,48,30,33,33,43,29,42,55,35,36,38,51,22,37,33,25,32,41,1e+08,42,40,51,46,40,40,34,44,37,32,35,37,40,49,46,27,38,38,41,32,35,43,42,28,27,34,37,39,38,35,41,37,34,38,39,39,37,27,36,30,42,28,39,52,31,46,35,20,28,26,35,35,37,40,42,33,43,37,40,28,33,32,31,41,40,36,43,30,41,29,35,34,40,35,33,50,24,45,39,37,31,35,29,45,35,39,36,33,30,34,41,38,28,34,29,31,39,30,32,33,28,40,31,30,40,35,40,42,45,34,29,44,31,34,44,43,38,36,38,29,35,33,25,36,39,35,30,29,31,30,52,36,28,49,28
25,30,34,32,36,35,35,29,34,33,37,27,35,37,32,39,20,34,26,41,38,28,35,28,32,34,45,24,20,40,38,26,35,33,36,41,39,35,34,32,39,35,36,32,37,34,43,32,39,28,41,32,35,44,37,36,33,40,34,42,39,23,36,31,42,1e+08,37,42,43,45,44,40,38,38,37,33,35,40,46,43,29,36,31,32,32,34,39,36,29,39,35,35,35,35,35,38,41,29,32,28,37,38,29,40,32,39,35,35,41,40,34,40,20,24,22,33,29,33,36,38,29,31,33,40,25,37,25,36,28,36,34,38,33,38,33,37,36,37,35,34,41,23,42,37,36,40,32,30,40,30,36,31,30,34,33,41,35,23,30,32,30,33,27,38,26,27,37,38,26,37,33,35,43,34,34,42,48,33,41,33,41,33,35,38,32,33,41,30,34,38,41,30,37,35,23,37,36,42,38,40
38,39,31,32,38,34,32,37,31,29,36,38,38,36,25,32,26,41,33,34,38,31,31,35,36,31,31,36,28,32,38,29,37,31,41,49,41,36,30,32,38,38,35,36,36,37,43,37,40,36,40,35,37,36,39,36,34,31,32,38,33,25,35,31,40,37,1e+08,37,36,40,38,40,33,37,40,38,40,35,41,39,31,31,37,40,30,31,37,32,32,29,33,36,33,34,32,42,37,34,41,42,33,32,29,37,29,37,28,40,33,34,35,34,26,29,26,39,38,33,39,36,28,33,38,35,23,40,36,35,39,36,41,40,39,42,30,29,40,42,26,30,36,27,43,40,34,40,33,32,43,30,38,33,38,38,30,42,39,33,31,34,25,34,36,36,34,31,36,35,25,36,34,33,43,34,36,35,36,31,38,34,41,43,32,34,33,33,37,37,41,38,38,27,30,33,33,33,37,34,39,39
33,32,34,31,40,37,28,26,38,38,43,33,38,51,34,35,25,36,30,34,36,29,36,33,34,46,37,30,20,51,39,26,51,39,36,47,36,34,33,36,46,50,36,32,39,39,45,37,42,28,45,37,43,58,43,37,40,57,31,34,33,26,39,45,51,42,37,1e+08,51,42,50,39,44,41,36,39,46,46,49,48,33,39,32,46,35,34,44,40,32,40,32,44,34,45,36,38,38,39,38,35,48,36,27,44,39,45,34,34,49,32,37,38,19,22,23,33,39,40,45,40,33,46,36,34,27,35,33,38,41,39,38,42,35,43,30,34,34,43,37,33,40,27,43,41,37,35,36,32,42,37,41,37,32,34,35,42,39,26,33,33,27,39,30,39,34,29,38,32,28,41,40,41,46,51,39,35,49,34,41,32,51,36,35,45,33,37,47,25,39,39,44,33,34,34,27,45,44,33,51,35
32,34,34,30,36,30,32,25,39,33,41,30,35,48,29,35,27,38,30,35,38,23,38,30,33,40,32,26,24,45,36,34,45,39,35,47,38,35,31,45,49,45,41,30,34,39,49,41,38,30,49,39,45,55,48,44,39,49,31,52,33,27,39,47,46,43,36,51,1e+08,45,45,41,44,38,39,35,36,42,44,50,29,38,33,44,36,40,48,41,32,37,36,46,44,40,37,41,36,35,34,36,45,39,31,39,33,45,31,38,48,30,43,34,21,26,22,35,40,39,39,45,32,51,34,44,28,39,31,36,36,39,39,47,35,41,31,33,33,40,34,35,44,28,44,45,44,44,40,35,40,45,41,33,34,36,35,49,43,25,40,31,29,44,30,34,33,27,47,40,36,47,46,42,47,43,38,35,48,33,49,44,59,37,35,43,26,35,40,28,37,36,40,27,33,37,27,46,42,30,49,36
30,41,39,36,36,31,31,34,38,34,40,37,37,39,35,40,29,41,32,42,39,29,43,33,35,38,38,27,30,43,38,32,46,37,41,43,38,38,30,38,44,42,34,33,43,40,50,38,41,38,51,36,35,42,51,43,38,40,37,45,33,29,36,39,40,45,40,42,45,1e+08,48,48,41,39,43,34,44,44,45,41,29,35,41,39,37,38,43,38,31,35,38,42,40,43,38,44,36,37,40,35,40,36,29,43,38,52,27,38,43,38,42,38,26,23,26,38,42,41,40,41,35,44,38,40,26,38,35,37,37,42,45,41,31,39,35,36,35,46,44,32,43,29,49,45,44,43,34,28,43,34,38,33,31,36,37,46,41,28,36,32,31,40,32,39,39,28,41,37,27,46,34,38,47,46,44,38,49,34,40,40,44,39,37,49,29,40,38,31,38,45,46,35,29,34,30,44,43,36,40,39
29,34,30,34,37,30,32,30,30,36,45,33,35,43,32,36,24,33,27,40,37,25,33,34,35,35,34,28,24,37,46,28,42,34,36,43,36,36,30,34,42,35,34,29,43,32,48,42,46,35,41,34,38,46,48,32,37,41,36,38,34,26,42,35,40,44,38,50,45,48,1e+08,46,41,36,39,37,36,47,51,40,31,35,38,37,36,38,45,40,31,40,27,39,36,43,39,38,36,41,40,34,38,37,31,52,29,38,34,41,42,34,35,35,22,28,24,34,36,46,49,35,30,38,38,41,22,35,31,40,35,38,42,34,34,38,31,32,32,48,38,39,38,29,49,40,31,41,34,39,45,26,34,33,41,33,33,40,37,27,40,36,27,36,25,38,34,28,38,40,27,42,34,35,44,34,35,40,48,37,39,35,39,43,44,47,31,39,42,31,42,38,46,28,31,27,29,35,46,32,41,38
29,37,37,33,38,34,30,34,32,31,42,33,36,38,33,36,25,40,31,34,35,31,40,35,38,37,33,29,29,41,37,29,40,39,48,37,39,33,30,33,40,39,36,30,37,38,40,45,36,36,47,42,38,40,49,40,37,39,32,47,39,28,44,38,34,40,40,39,41,48,46,1e+08,35,34,45,39,39,43,37,41,35,36,39,41,45,38,40,32,33,34,32,37,41,33,40,42,39,33,37,33,42,41,30,42,29,46,33,42,40,29,38,39,27,27,24,31,40,31,38,40,31,43,39,38,23,40,34,33,37,41,51,40,38,33,34,34,39,43,33,34,38,33,43,39,39,45,39,35,42,37,36,34,36,33,39,44,36,33,34,30,29,41,35,34,32,27,40,36,32,41,39,37,43,38,42,36,45,41,40,39,39,39,37,44,26,35,40,29,41,42,39,35,30,36,31,33,38,32,39,38
25,31,34,34,35,35,33,29,34,32,29,35,38,38,26,34,27,33,32,27,30,27,36,36,38,34,31,29,28,45,38,36,47,36,34,43,34,31,33,43,49,38,41,31,32,36,39,34,33,32,40,31,47,50,34,46,40,49,35,38,31,25,32,45,44,38,33,44,44,41,41,35,1e+08,43,31,36,35,34,37,48,30,36,37,37,36,46,40,57,26,29,41,39,43,39,34,43,33,38,37,38,43,30,31,36,29,38,27,36,45,31,48,36,23,27,25,30,37,32,39,46,24,45,33,39,28,36,31,33,40,37,35,39,31,35,30,34,31,32,30,33,41,32,40,36,37,40,37,32,37,43,43,35,33,33,33,37,35,26,35,32,21,41,30,34,36,32,36,32,33,46,49,41,35,50,35,40,38,29,37,44,50,31,33,37,35,37,34,28,33,41,38,28,33,38,36,45,54,31,40,39
30,31,41,37,38,33,35,29,31,36,30,36,34,37,39,35,29,28,35,29,32,31,41,36,35,36,34,32,27,39,37,27,40,35,35,38,39,34,37,36,41,34,38,28,30,31,40,38,39,34,34,33,35,42,40,35,34,46,37,35,39,28,35,38,37,38,37,41,38,39,36,34,43,1e+08,32,34,35,43,39,43,32,33,34,32,33,39,40,36,28,38,33,41,42,38,35,42,37,27,39,33,40,30,33,39,40,41,32,38,39,34,38,33,24,32,31,32,34,32,37,37,29,39,34,38,24,36,33,30,33,36,35,37,36,32,32,32,36,39,32,37,34,31,44,32,32,35,33,34,46,31,40,31,33,34,31,34,40,32,31,37,23,39,31,34,29,30,36,36,28,36,35,35,37,45,33,34,39,32,39,34,43,34,32,38,44,30,37,29,36,37,41,28,39,32,34,40,38,39,38,39
31,36,31,33,32,30,31,27,35,23,42,33,33,36,28,29,34,41,31,31,36,29,37,32,33,34,29,29,32,44,37,29,41,37,42,37,34,33,31,32,33,42,37,28,30,36,40,36,27,33,51,40,40,36,45,37,37,40,25,43,33,30,42,35,32,37,40,36,39,43,39,45,31,32,1e+08,38,38,35,38,37,29,35,36,40,37,33,45,29,28,31,36,40,38,34,39,43,30,30,34,39,42,40,31,32,25,45,29,34,37,25,32,34,29,26,20,36,47,36,33,36,28,37,35,38,27,38,30,29,35,44,43,44,23,33,31,38,32,35,27,24,40,27,39,34,41,39,36,25,31,38,29,34,28,28,29,40,44,34,36,30,27,36,38,31,36,32,45,34,29,42,36,39,34,30,42,34,42,33,38,45,36,29,30,38,28,34,42,30,33,41,34,30,30,33,32,40,30,31,43,37
37,45,33,36,39,33,31,33,31,29,34,42,38,35,25,30,32,32,40,27,33,33,40,41,36,33,35,33,34,37,43,26,39,41,44,38,34,41,38,30,37,38,38,37,38,33,42,40,30,35,38,33,33,39,42,34,32,37,30,44,34,39,37,29,35,33,38,39,35,34,37,39,36,34,38,1e+08,46,37,37,34,34,33,42,36,40,37,36,34,33,32,34,42,32,31,43,41,31,32,41,40,37,40,26,34,27,41,33,41,39,33,39,37,29,28,21,31,36,47,47,33,29,37,41,35,18,35,40,36,32,36,47,38,31,32,34,34,43,43,29,33,38,33,40,43,33,40,30,33,42,33,35,29,38,33,34,36,33,36,41,30,24,39,26,32,42,35,36,39,31,33,34,33,40,33,48,32,41,36,40,34,43,42,36,35,29,40,35,32,42,43,36,28,31,26,40,40,37,30,36,32
40,41,33,38,41,37,37,34,32,33,38,39,41,34,22,36,32,37,39,28,38,31,38,37,36,34,35,34,31,36,44,30,41,39,38,40,41,41,38,35,40,40,38,39,37,36,41,41,36,36,39,32,34,37,43,33,33,39,35,40,34,30,41,37,37,35,40,46,36,44,36,39,35,35,38,46,1e+08,41,41,38,35,30,43,31,43,35,36,37,35,37,35,35,29,35,43,38,34,39,46,34,37,33,29,41,32,39,35,38,38,37,36,41,28,29,27,36,33,49,49,38,30,39,48,32,25,33,36,37,34,39,45,38,33,32,30,33,46,45,31,34,41,32,41,44,35,39,33,35,40,32,37,25,35,35,39,44,36,36,34,36,24,33,29,29,37,34,38,43,32,44,33,38,42,40,43,32,45,39,35,33,38,46,38,31,35,43,38,32,42,39,41,27,33,30,36,36,39,31,41,31
32,33,31,31,36,30,33,25,24,35,38,27,38,38,32,42,23,25,24,30,36,27,41,32,33,31,40,27,23,38,39,26,36,37,36,41,35,35,31,30,38,36,39,33,39,27,43,42,42,36,34,30,33,45,45,34,29,39,31,39,34,25,42,37,40,40,35,46,42,44,47,43,34,43,35,37,41,1e+08,47,40,32,31,39,33,34,35,41,34,33,44,31,38,29,39,34,35,31,33,37,31,40,35,30,54,38,36,31,44,38,30,39,36,19,23,24,31,27,43,42,38,30,39,43,30,23,28,29,32,30,34,42,36,31,33,33,31,38,46,42,34,40,28,53,36,32,42,30,34,42,30,28,29,36,35,37,34,33,26,36,28,28,33,23,31,30,23,34,35,22,33,31,32,56,37,34,34,53,33,35,32,40,36,38,32,29,36,39,25,43,38,44,32,29,25,29,39,35,32,36,34
33,34,34,33,33,31,34,26,41,30,48,32,40,46,31,33,23,39,30,37,39,30,31,40,35,41,33,26,22,47,41,27,49,37,40,48,36,36,30,28,39,42,34,33,41,33,53,40,41,33,41,35,42,51,43,30,39,45,35,39,35,28,41,45,49,46,41,49,44,45,51,37,37,39,38,37,41,47,1e+08,47,33,31,42,45,30,35,42,33,28,38,31,37,38,43,40,41,36,34,37,37,37,36,32,46,31,42,35,36,42,34,37,38,21,26,24,38,34,39,47,43,29,37,36,39,26,34,32,36,41,38,40,52,29,44,30,31,37,45,35,39,44,30,48,43,33,41,34,30,48,34,38,36,37,38,36,50,39,27,35,30,24,31,29,38,38,25,41,33,26,44,36,31,54,47,35,33,47,33,40,41,46,44,35,46,28,39,40,29,42,39,48,24,35,28,31,48,37,31,46,37
30,34,38,34,36,34,30,29,36,38,43,32,36,40,30,41,21,37,33,32,33,31,34,36,33,42,34,29,25,47,38,32,48,33,35,44,37,37,25,38,46,46,37,31,34,40,49,41,44,30,42,35,44,52,39,43,40,58,34,37,33,29,36,48,46,43,39,48,50,41,40,41,48,43,37,34,38,40,47,1e+08,33,36,34,39,36,40,42,43,31,37,36,44,43,42,39,45,38,35,36,37,45,38,30,41,37,43,33,40,52,37,42,33,22,27,23,33,43,35,42,44,30,44,36,39,28,34,33,35,37,35,41,44,33,35,33,36,35,39,34,37,47,25,42,41,41,41,37,38,38,41,39,37,35,37,29,45,39,27,36,37,25,41,30,36,34,29,47,37,30,44,42,42,46,50,44,36,42,33,45,42,57,31,34,34,32,35,47,33,34,36,40,31,35,31,29,49,42,35,41,35
41,40,29,46,33,41,41,43,20,36,31,36,36,23,27,29,35,27,35,20,37,37,38,37,39,24,30,41,35,27,35,26,30,30,33,29,28,39,34,26,29,31,27,43,37,31,31,33,33,28,28,30,33,35,33,28,28,29,42,31,41,32,35,31,27,29,31,33,29,29,31,35,30,32,29,34,35,32,33,33,1e+08,24,29,29,31,33,32,27,40,31,25,30,28,33,31,33,39,31,35,29,34,30,38,35,30,34,46,28,29,40,30,34,27,38,31,39,32,38,31,31,21,32,30,29,25,32,39,37,25,29,31,38,41,22,30,34,33,36,15,36,30,42,28,27,29,34,26,44,29,34,30,14,39,41,29,27,27,37,36,40,18,30,34,30,40,36,30,33,24,34,30,31,31,26,32,29,24,38,35,32,32,38,36,30,42,37,34,41,31,31,36,19,42,26,37,25,32,37,29,37
27,30,30,31,32,28,31,27,34,29,35,31,35,38,28,30,25,36,33,32,35,26,33,33,31,36,28,21,25,42,36,32,42,31,38,30,34,35,34,39,37,41,35,28,29,41,39,30,28,33,41,36,40,43,40,40,41,38,30,40,33,32,33,41,38,36,31,39,38,35,35,36,36,33,35,33,30,31,31,36,24,1e+08,33,37,34,31,40,34,24,34,39,41,38,39,36,42,39,30,33,37,42,33,28,33,31,41,25,38,37,28,40,36,29,25,23,31,36,33,34,41,30,42,34,41,27,37,30,26,38,39,34,37,27,31,33,31,37,35,32,29,44,26,34,41,40,38,43,21,37,45,39,30,27,27,28,41,42,29,32,24,28,38,32,29,30,29,43,32,34,39,40,39,35,40,35,33,36,33,40,41,38,30,31,40,28,33,34,29,33,38,31,31,28,36,30,43,35,30,39,32
39,39,32,33,37,28,33,29,32,28,32,38,37,34,27,32,30,36,32,30,30,32,36,38,31,31,28,29,28,34,38,28,35,42,45,41,30,33,37,32,37,37,36,30,38,31,42,41,29,32,36,36,39,38,38,36,32,35,30,37,31,27,37,28,38,31,37,32,33,41,38,39,37,34,36,42,43,39,42,34,29,33,1e+08,33,36,34,41,32,34,29,33,36,30,33,46,38,32,32,45,32,34,36,26,37,26,39,36,36,40,33,40,37,25,30,25,35,35,39,44,31,27,40,40,31,20,36,37,30,38,35,46,42,26,27,33,34,39,44,27,37,36,30,45,39,29,38,26,30,37,30,31,27,38,31,33,37,36,32,37,26,22,32,24,26,33,33,43,33,25,38,33,32,43,36,40,34,34,33,36,39,35,40,31,34,28,36,31,30,41,44,35,25,32,27,31,37,33,25,37,33
32,36,25,32,33,34,22,30,38,28,38,32,34,39,24,25,28,45,31,27,30,30,28,31,28,36,29,25,28,45,32,32,39,32,38,40,40,31,27,38,36,43,40,30,28,37,42,36,30,34,46,39,41,44,45,38,38,42,30,38,34,31,33,39,41,32,40,46,44,39,37,41,37,32,40,36,31,33,45,39,29,37,33,1e+08,31,39,45,34,29,28,32,37,42,38,30,40,29,37,32,45,44,34,25,36,22,42,28,35,38,26,37,30,29,27,22,41,51,36,37,36,25,43,34,44,25,42,34,31,37,41,38,42,27,38,26,30,36,29,26,33,41,29,41,36,37,35,35,25,43,35,39,41,36,28,31,44,40,28,31,27,27,46,34,28,38,29,39,33,31,40,32,38,41,31,39,30,39,31,42,44,42,33,33,50,27,31,34,24,34,37,39,27,36,35,34,46,34,24,44,34
27,30,32,31,35,32,34,30,28,33,37,31,37,31,28,38,28,29,33,31,38,25,35,30,31,34,34,25,27,36,38,26,38,36,38,34,33,35,32,36,33,39,34,33,39,30,33,37,32,32,35,35,30,32,40,33,33,32,31,41,35,26,41,36,32,32,30,35,36,37,36,45,36,33,37,40,43,34,30,36,31,34,36,31,1e+08,34,36,35,31,39,34,38,38,32,37,37,31,34,43,33,34,33,31,31,31,33,28,35,36,35,34,37,28,24,22,35,36,38,35,32,27,38,34,35,26,30,32,36,26,38,37,33,31,32,42,36,35,32,28,33,35,28,40,35,34,38,36,28,34,32,33,26,27,31,33,41,33,29,32,33,31,32,30,25,30,27,34,33,33,37,33,34,35,34,36,36,37,36,34,38,35,34,37,37,30,34,34,28,33,33,31,29,35,31,25,34,35,34,35,35
28,31,27,32,35,30,25,30,35,31,32,35,38,38,27,33,26,32,34,30,32,29,33,31,35,33,30,26,28,38,31,37,47,31,31,37,34,36,30,42,47,39,43,34,35,37,40,36,36,32,38,34,44,43,38,42,35,46,33,37,34,27,35,42,35,34,31,34,40,38,38,38,46,39,33,37,35,35,35,40,33,31,34,39,34,1e+08,39,47,34,32,33,44,40,35,36,38,31,32,39,37,39,34,32,37,28,44,33,38,42,32,39,36,27,26,22,33,34,30,33,36,26,41,39,36,27,34,31,35,40,34,33,39,32,32,33,35,39,32,29,37,37,30,37,36,38,37,39,33,41,44,43,28,32,35,30,40,36,26,32,32,24,41,37,29,31,28,38,34,32,39,46,35,37,48,36,32,34,29,40,43,45,33,33,41,35,36,31,28,30,38,37,27,34,41,28,43,47,32,37,36
25,32,27,28,35,32,27,26,37,31,42,29,33,41,28,35,27,40,34,36,33,26,35,28,32,37,30,23,29,42,36,30,48,37,43,42,37,36,31,44,36,42,36,29,37,40,42,34,34,38,49,42,46,43,49,40,35,43,32,45,34,23,37,40,43,39,37,44,48,43,45,40,40,40,45,36,36,41,42,42,32,40,41,45,36,39,1e+08,33,27,35,38,42,40,40,41,40,30,37,35,45,47,41,30,37,27,42,29,39,43,28,33,37,28,25,20,37,46,40,39,38,33,44,32,46,28,41,26,33,33,45,38,42,31,39,28,34,34,38,31,34,46,26,42,36,38,45,44,29,40,38,38,28,31,31,34,44,41,27,36,35,28,42,36,32,31,26,44,37,31,44,41,40,45,33,34,32,46,35,47,42,49,32,36,44,31,31,38,27,35,44,41,27,32,35,34,46,38,31,47,34
30,35,34,30,36,31,31,29,33,33,29,33,40,36,27,29,26,33,33,29,31,31,34,31,32,34,27,28,28,37,36,34,43,38,34,38,36,37,31,39,48,38,41,35,33,35,41,34,34,29,31,25,44,40,34,41,39,43,30,33,32,27,32,38,42,36,32,40,41,38,40,32,57,36,29,34,37,34,33,43,27,34,32,34,35,47,33,1e+08,33,28,32,31,36,39,36,37,36,38,37,33,33,34,29,36,30,38,30,35,39,32,46,36,21,27,27,34,33,38,36,41,21,35,36,34,29,35,32,30,40,39,36,37,30,35,30,34,29,34,28,33,38,28,34,34,33,34,33,34,34,38,41,30,35,34,28,39,33,29,36,29,27,39,31,29,30,25,28,37,32,38,42,31,32,51,34,38,39,35,34,42,43,31,35,33,38,34,32,24,34,34,38,30,33,38,28,38,48,37,32,33
33,48,40,38,35,36,36,47,24,34,34,43,36,27,32,29,42,25,45,21,32,37,33,37,49,26,32,44,43,27,42,25,29,28,36,31,32,37,27,30,30,33,33,40,41,30,28,29,29,29,35,27,29,33,31,30,31,29,38,33,42,40,28,28,28,29,32,32,32,31,31,33,26,28,28,33,35,33,28,31,40,24,34,29,31,34,27,33,1e+08,34,29,34,32,29,31,32,37,39,30,28,30,25,42,29,36,35,44,32,34,42,27,32,30,43,32,38,28,32,27,29,20,27,34,28,24,26,45,38,30,36,31,30,38,29,33,39,36,30,19,38,24,38,29,30,29,30,32,43,28,29,27,16,39,45,29,36,30,49,33,36,27,35,26,29,40,37,33,28,28,33,31,27,30,36,40,38,29,49,27,35,31,35,35,30,41,31,36,34,31,32,30,18,37,29,32,33,27,34,33,37
22,26,38,36,35,32,40,29,25,37,32,24,38,27,25,39,26,25,27,30,39,27,33,32,39,24,36,25,25,31,46,25,35,32,29,29,34,41,36,31,32,27,29,37,42,28,39,39,48,31,32,28,26,37,36,26,25,37,35,31,40,23,41,33,27,39,29,40,37,35,40,34,29,38,31,32,37,44,38,37,31,34,29,28,39,32,35,28,34,1e+08,26,26,30,40,31,29,33,30,38,25,32,31,34,45,37,33,33,38,34,38,25,40,21,28,22,38,26,41,41,33,30,30,28,28,22,29,26,44,27,24,33,31,36,31,39,34,31,42,29,33,29,24,39,32,33,36,26,34,39,29,32,22,27,38,42,34,32,30,33,33,31,31,21,30,28,29,27,37,23,28,27,26,36,36,33,37,33,39,34,29,40,37,41,35,33,34,37,27,39,26,40,28,35,27,27,36,31,42,29,37
25,25,30,28,31,32,25,24,32,29,29,28,29,34,22,28,24,34,25,29,30,23,28,29,28,33,29,23,26,39,31,34,33,28,39,32,30,34,30,40,33,36,40,34,26,35,35,32,25,34,37,38,38,38,36,38,34,33,28,37,29,27,29,37,34,35,33,32,36,38,27,32,41,33,36,34,35,31,31,36,25,39,33,32,34,33,38,32,29,26,1e+08,35,38,32,36,43,29,26,34,37,35,34,23,31,23,38,24,35,37,30,35,31,29,23,18,25,33,28,31,35,26,40,39,35,28,41,30,24,32,40,34,43,22,34,32,31,37,33,26,28,41,25,35,36,40,37,39,25,32,35,35,28,32,24,31,40,37,27,28,29,25,39,33,23,29,25,40,33,31,38,39,38,36,36,36,30,34,29,35,36,38,29,26,31,24,33,33,28,25,36,32,28,24,34,26,38,33,23,40,38
26,34,34,32,29,32,32,26,38,33,36,32,35,39,29,32,27,36,29,34,32,27,35,27,28,37,38,26,23,39,32,28,46,31,32,41,33,35,31,38,44,42,41,31,32,37,36,37,34,29,45,38,40,48,41,38,42,44,30,41,29,27,36,44,37,35,36,44,46,42,39,37,39,41,40,42,35,38,37,44,30,41,36,37,38,44,42,31,34,26,35,1e+08,47,35,35,45,31,30,39,40,44,34,32,33,31,44,31,39,44,30,38,35,26,24,20,31,37,30,28,37,29,45,30,41,29,37,30,33,38,43,43,44,28,36,30,32,35,31,35,32,45,28,40,42,39,38,38,27,37,40,40,36,31,28,32,47,38,27,30,28,25,41,34,27,33,26,41,32,32,40,46,45,40,41,38,30,41,28,42,43,45,22,28,37,30,32,39,24,28,39,36,29,32,36,28,43,40,30,41,34
25,30,30,28,35,29,30,29,38,32,30,28,29,36,27,29,27,36,24,34,35,28,36,29,32,35,33,25,25,48,28,32,44,32,37,38,31,30,31,42,38,39,42,27,32,38,37,36,31,34,41,37,40,45,39,37,40,42,26,38,36,31,32,42,39,35,33,34,44,40,36,41,43,42,38,32,29,29,38,43,28,38,30,42,38,40,40,36,32,30,38,47,1e+08,32,33,40,40,30,34,40,43,31,31,28,28,41,25,35,47,28,41,31,26,25,23,31,39,27,29,37,28,45,31,45,28,37,30,30,37,39,33,45,28,38,34,31,31,32,30,31,41,27,35,39,37,37,39,25,41,34,44,36,33,30,34,44,40,24,29,30,30,44,35,28,30,30,41,34,31,43,37,40,36,35,31,33,34,35,45,47,41,29,32,37,28,35,39,26,31,38,33,29,29,41,25,44,37,27,39,36
27,30,35,31,44,27,28,25,35,31,38,31,36,41,32,36,20,28,31,34,37,26,30,31,30,37,33,27,16,39,35,29,42,34,34,44,40,38,30,34,40,40,33,32,35,33,48,39,52,33,38,37,36,38,42,39,37,42,33,38,30,18,35,37,38,35,34,45,40,43,43,33,39,38,34,31,35,39,43,42,33,39,33,38,32,35,40,39,29,40,32,35,32,1e+08,32,41,34,30,35,34,32,29,27,44,30,39,30,36,39,30,40,37,21,22,23,26,35,34,41,34,35,35,35,39,29,37,27,32,31,34,37,39,32,38,34,29,34,38,36,32,35,23,40,37,32,37,33,27,41,32,36,36,29,32,34,40,36,22,31,30,33,28,30,42,28,23,29,33,29,34,35,33,44,39,33,39,43,30,38,31,44,33,34,42,32,33,38,26,38,36,53,33,30,31,26,45,40,32,37,34
40,41,29,39,36,37,35,32,27,31,35,44,41,30,21,34,30,35,36,28,42,35,36,39,37,30,32,34,37,39,44,27,37,39,41,37,34,42,39,39,34,37,35,37,36,31,41,34,30,38,39,32,35,35,36,31,32,37,33,32,32,35,44,38,35,35,32,36,37,38,39,40,34,35,39,43,43,34,40,39,31,36,46,30,37,36,41,36,31,31,36,35,33,32,1e+08,41,35,39,44,29,32,34,32,33,28,43,36,35,37,30,34,39,30,34,30,36,33,46,40,38,23,35,41,33,22,28,32,34,35,42,43,37,34,31,35,33,42,37,27,42,43,32,38,36,33,37,34,33,35,28,34,23,40,33,35,40,35,33,45,34,24,36,32,30,40,35,35,50,31,35,35,35,37,34,38,31,41,40,33,38,39,47,38,28,33,42,36,36,41,40,32,18,37,29,35,38,33,35,34,35
33,37,28,35,38,35,34,30,37,30,34,36,38,41,30,32,27,43,37,32,38,27,39,35,36,38,36,32,31,42,43,35,46,36,37,39,34,38,29,43,45,45,44,33,34,39,42,38,36,37,44,41,47,48,41,47,43,46,36,43,33,31,39,46,41,38,42,38,41,44,38,42,43,42,43,41,38,35,41,45,33,42,38,40,37,38,40,37,32,29,43,45,40,41,41,1e+08,36,35,34,38,42,34,29,36,28,43,26,38,45,28,42,37,26,27,26,34,37,31,36,42,31,44,40,39,28,38,36,36,42,41,43,47,32,39,31,37,43,41,31,34,46,33,41,44,46,46,38,32,40,39,38,34,34,32,34,44,42,34,30,36,24,43,37,26,39,36,42,36,33,42,44,44,40,42,38,32,41,37,44,44,49,34,34,39,34,37,42,31,39,41,37,27,34,41,32,45,36,33,43,34
36,36,38,42,39,38,34,33,29,31,31,40,36,32,29,38,29,29,33,33,38,35,39,36,41,34,32,36,31,37,39,29,34,31,37,35,32,35,36,33,33,36,31,33,31,37,37,33,35,25,35,31,36,37,35,28,36,36,37,34,41,35,32,32,37,41,37,38,36,36,36,39,33,37,30,31,34,31,36,38,39,39,32,29,31,31,30,36,37,33,29,31,40,34,35,36,1e+08,30,31,36,30,32,42,33,35,44,43,31,35,38,31,38,25,38,34,40,31,26,31,34,27,33,33,33,23,31,35,37,34,37,34,36,37,29,35,42,36,28,31,36,35,30,32,34,35,36,35,36,34,33,32,26,32,35,30,37,29,32,32,32,32,36,29,30,34,32,34,32,29,36,33,32,34,35,32,38,31,42,40,34,32,34,31,34,38,34,34,37,34,32,37,29,36,33,32,35,36,38,36,41
47,45,29,40,35,38,31,40,23,30,35,43,33,32,27,26,34,34,40,29,33,39,27,40,41,26,30,40,38,27,40,27,34,35,32,32,37,40,29,35,38,36,32,33,44,33,32,32,33,31,32,28,34,40,32,36,36,38,45,30,36,39,37,32,34,29,34,39,35,37,41,33,38,27,30,32,39,33,34,35,31,30,32,37,34,32,37,38,39,30,26,30,30,30,39,35,30,1e+08,42,36,31,28,38,37,30,41,39,34,34,34,29,34,26,41,32,41,30,37,37,28,19,35,34,30,21,37,41,45,32,37,38,34,39,28,28,35,35,41,22,40,32,37,36,31,30,34,32,42,29,27,35,17,45,45,27,35,29,42,39,40,20,32,28,33,40,40,31,37,29,36,32,35,32,33,35,30,35,34,36,35,34,38,35,32,43,35,41,41,33,35,34,23,41,34,39,32,32,35,33,37
29,37,31,45,38,35,34,33,26,34,38,36,41,36,26,35,30,36,36,30,35,28,36,40,39,28,32,28,30,36,43,32,38,40,39,35,35,42,33,33,39,31,36,38,44,34,39,42,40,36,36,38,36,40,43,37,36,37,37,36,35,28,46,34,38,32,41,38,34,40,40,37,37,39,34,41,46,37,37,36,35,33,45,32,43,39,35,37,30,38,34,39,34,35,44,34,31,42,1e+08,35,38,34,34,42,30,42,35,41,35,39,33,39,26,31,25,38,36,40,42,36,23,38,42,36,23,38,37,40,34,39,41,34,43,31,33,34,40,41,29,41,36,34,46,38,37,43,36,34,41,32,37,29,33,35,36,36,35,34,33,37,24,34,35,29,35,32,35,47,31,36,38,43,36,39,43,33,33,38,39,36,36,40,40,38,36,34,34,34,41,43,37,28,37,32,30,35,41,34,37,35
33,37,22,29,28,33,26,30,30,26,35,38,33,37,23,23,33,38,40,27,28,30,28,31,34,31,22,28,35,40,33,32,44,33,38,36,35,27,25,41,33,40,39,32,29,41,33,32,29,34,44,37,41,39,37,39,35,38,29,36,31,29,31,40,39,28,42,35,36,35,34,33,38,33,39,40,34,31,37,37,29,37,32,45,33,37,45,33,28,25,37,40,40,34,29,38,36,36,35,1e+08,37,39,26,31,23,40,24,39,35,26,41,30,29,33,25,32,42,34,30,36,24,35,32,44,27,37,36,29,38,38,35,44,32,36,26,29,35,32,20,34,43,33,34,38,38,34,39,25,33,39,38,31,37,29,34,40,37,33,36,29,23,42,40,28,34,34,41,32,35,40,39,37,36,38,39,25,34,34,43,35,33,31,28,40,27,31,36,32,30,40,27,24,33,37,38,40,40,27,41,31
24,30,26,28,28,28,26,27,37,30,36,34,30,44,29,27,28,39,28,32,33,26,36,33,29,37,35,27,25,46,33,27,44,31,34,37,36,34,30,36,42,46,45,29,31,41,42,36,32,35,40,37,36,45,45,40,36,45,24,39,30,31,38,43,39,37,33,48,45,40,38,42,43,40,42,37,37,40,37,45,34,42,34,44,34,39,47,33,30,32,35,44,43,32,32,42,30,31,38,37,1e+08,35,26,33,27,42,26,35,44,26,41,29,29,23,24,32,40,32,35,43,32,43,34,37,29,36,31,29,36,38,39,45,28,41,26,27,37,34,30,30,44,28,42,38,38,42,41,28,39,40,42,29,29,30,30,45,48,26,32,25,26,47,29,33,33,34,40,34,35,40,41,37,42,37,40,32,41,36,43,35,49,24,35,40,25,34,41,26,28,40,33,30,26,33,29,46,36,30,42,38
29,27,29,32,35,31,29,31,33,30,34,30,39,35,27,34,21,34,30,32,33,28,32,33,33,34,29,23,24,39,34,30,42,38,39,33,34,28,27,30,32,34,38,32,31,36,36,37,32,32,35,38,33,39,38,35,35,36,26,38,36,24,35,36,37,38,32,36,39,36,37,41,30,30,40,40,33,35,36,38,30,33,36,34,33,34,41,34,25,31,34,34,31,29,34,34,32,28,34,39,35,1e+08,28,33,24,43,30,37,33,31,38,37,27,29,20,35,36,31,36,35,27,36,38,35,25,37,30,32,28,35,36,34,31,35,30,36,29,31,25,32,37,29,34,32,33,42,35,30,38,30,31,33,36,35,31,37,40,24,31,35,31,36,30,26,28,30,33,35,32,40,36,35,32,28,35,30,34,31,40,37,34,34,33,34,28,36,35,31,31,38,32,32,33,35,29,33,34,30,39,39
35,37,38,38,33,39,39,38,20,37,33,35,31,23,32,28,34,30,35,24,33,45,36,35,45,23,30,44,34,27,38,26,30,30,28,29,35,36,30,26,32,27,28,36,32,27,28,33,35,26,29,29,25,30,31,29,32,31,48,31,37,33,33,30,27,29,29,27,31,29,31,30,31,33,31,26,29,30,32,30,38,28,26,25,31,32,30,29,42,34,23,32,31,27,32,29,42,38,34,26,26,28,1e+08,31,35,29,45,28,29,44,25,35,25,43,33,40,28,33,26,27,16,27,31,26,23,28,40,40,29,23,29,28,38,27,34,37,31,31,17,36,24,36,28,27,30,31,27,44,30,25,31,15,36,40,32,31,30,40,34,36,23,26,25,36,36,36,30,28,24,25,29,24,21,29,26,37,27,43,27,28,28,39,32,28,36,29,41,44,27,26,29,19,40,27,37,30,30,42,29,37
33,32,35,38,43,36,31,27,24,35,41,31,39,36,35,38,24,31,27,38,35,32,37,37,34,36,36,26,24,37,39,28,39,37,34,43,35,36,30,31,41,36,36,36,39,29,40,39,54,32,33,30,32,42,43,37,31,40,31,37,34,22,42,35,36,40,37,44,39,43,52,42,36,39,32,34,41,54,46,41,35,33,37,36,31,37,37,36,29,45,31,33,28,44,33,36,33,37,42,31,33,33,31,1e+08,32,37,38,44,41,35,33,38,18,31,28,36,29,39,42,33,34,37,41,34,22,33,35,39,30,35,44,33,34,35,32,32,39,48,33,37,34,30,51,40,31,37,31,33,43,29,36,29,39,36,36,35,31,32,40,35,32,30,28,36,33,23,27,38,21,41,29,31,40,38,38,38,43,33,33,35,43,42,40,33,36,34,39,32,47,36,49,33,38,29,33,33,40,34,36,34
23,26,44,33,30,33,41,35,22,44,26,30,27,28,43,32,36,21,35,26,30,31,47,26,33,31,36,37,31,29,34,20,31,27,23,30,31,37,32,29,27,30,33,29,31,26,31,32,32,25,24,28,28,31,31,27,25,33,37,30,31,29,31,28,30,32,29,39,33,38,29,29,29,40,25,27,32,38,31,37,30,31,26,22,31,28,27,30,36,37,23,31,28,30,28,28,35,30,30,23,27,24,35,32,1e+08,29,44,29,35,34,25,32,18,34,31,33,29,30,32,31,21,27,22,23,24,25,32,29,25,24,30,28,33,28,34,39,22,35,28,34,27,25,37,27,28,34,25,35,29,31,34,21,25,34,30,28,26,34,32,34,24,27,20,44,34,31,28,22,29,31,33,28,37,34,28,36,34,42,27,27,33,28,33,31,37,28,31,35,33,21,30,31,35,24,26,34,31,40,26,34
35,42,31,39,39,34,30,32,41,27,46,37,39,41,27,29,31,39,36,35,40,31,35,34,34,36,31,34,33,46,40,35,48,37,43,43,33,37,29,40,46,44,43,34,37,43,45,33,32,38,50,38,45,47,45,39,44,37,32,40,37,32,41,44,42,39,37,45,45,52,38,46,38,41,45,41,39,36,42,43,34,41,39,42,33,44,42,38,35,33,38,44,41,39,43,43,44,41,42,40,42,43,29,37,29,1e+08,36,43,45,33,39,37,28,27,29,37,47,35,40,42,30,41,37,46,27,37,37,36,46,45,43,49,32,35,28,39,39,41,33,38,45,31,42,43,39,43,39,34,44,37,42,34,37,35,36,45,47,32,35,32,30,45,37,34,35,34,44,36,32,48,40,39,46,40,42,30,43,39,42,46,44,41,35,47,32,36,38,33,34,42,41,28,33,37,31,42,41,29,48,37
38,34,38,35,32,31,36,38,21,37,34,35,34,28,27,33,33,30,33,27,36,38,32,37,43,25,28,39,37,30,38,25,27,31,32,34,33,35,29,28,29,30,31,40,37,31,33,32,34,25,32,27,29,35,34,25,27,32,45,33,37,41,35,25,28,35,28,34,31,27,34,33,27,32,29,33,35,31,35,33,46,25,36,28,28,33,29,30,44,33,24,31,25,30,36,26,43,39,35,24,26,30,45,38,44,36,1e+08,29,36,31,24,32,25,39,32,36,29,42,34,29,21,26,29,28,21,27,42,33,27,25,31,33,33,28,31,42,30,36,20,39,25,43,34,31,29,32,30,51,33,27,28,19,37,47,30,31,31,38,41,39,19,25,26,33,38,36,32,37,25,30,33,28,32,34,29,33,29,40,33,29,33,42,34,33,35,28,39,41,31,27,35,23,36,24,35,32,30,40,31,36
31,37,30,34,41,33,32,28,31,28,36,33,40,36,27,37,22,28,37,33,35,29,34,36,33,29,34,29,23,41,40,33,34,37,38,39,38,36,31,35,37,33,38,32,36,40,41,42,42,37,34,35,31,42,41,37,38,38,30,40,36,30,36,32,39,35,40,34,38,38,41,42,36,38,34,41,38,44,36,40,28,38,36,35,35,38,39,35,32,38,35,39,35,36,35,38,31,34,41,39,35,37,28,44,29,43,29,1e+08,40,33,37,40,23,26,23,32,33,38,39,37,28,34,39,39,26,32,38,33,31,38,46,39,34,36,33,36,35,40,31,31,43,28,46,38,31,41,34,32,42,33,37,29,33,30,38,40,37,36,32,32,29,38,29,35,33,32,32,35,29,42,32,38,42,34,39,35,43,36,37,33,33,34,34,32,37,35,32,27,39,42,37,28,32,35,30,36,36,32,35,36
30,36,35,32,34,31,32,30,42,34,41,30,37,48,29,36,24,38,34,36,35,26,39,30,30,38,35,29,27,51,36,29,49,38,40,47,35,33,35,43,42,46,47,30,35,41,44,31,33,32,48,35,41,54,42,42,41,49,25,39,31,24,40,47,52,41,33,49,48,43,42,40,45,39,37,39,38,38,42,52,29,37,40,38,36,42,43,39,34,34,37,44,47,39,37,45,35,34,35,35,44,33,29,41,35,45,36,40,1e+08,29,45,35,26,25,24,30,43,39,41,42,32,51,36,44,30,37,36,29,41,41,42,40,28,41,35,38,38,42,37,32,42,26,43,40,40,41,41,33,42,44,44,36,31,37,35,48,43,30,38,33,28,45,31,35,31,31,42,33,30,51,47,44,45,41,43,36,46,33,43,37,49,32,33,37,35,36,36,27,30,41,39,32,26,33,28,48,40,33,52,33
34,38,39,44,38,47,37,45,21,39,31,42,36,27,28,33,27,30,39,24,31,35,28,42,42,22,33,35,27,27,39,26,31,26,29,26,36,44,29,26,32,31,30,34,41,29,31,31,37,32,28,27,30,35,30,27,32,33,44,35,43,36,33,28,31,40,34,32,30,38,34,29,31,34,25,33,37,30,34,37,40,28,33,26,35,32,28,32,42,38,30,30,28,30,30,28,38,34,39,26,26,31,44,35,34,33,31,33,29,1e+08,22,38,18,38,32,41,24,31,30,34,15,25,33,26,22,29,46,45,30,31,30,30,48,24,34,37,32,35,20,46,26,27,32,32,28,30,27,40,28,27,33,20,42,44,33,32,27,42,36,50,25,23,23,29,41,28,34,35,25,36,29,34,27,31,30,38,29,40,30,29,32,43,40,33,43,37,38,44,33,28,28,18,46,29,35,31,30,44,33,38
28,29,33,30,36,23,35,23,42,28,33,30,32,41,27,34,21,34,27,30,40,24,34,33,30,41,32,23,24,44,29,31,44,32,34,38,33,30,33,43,47,45,39,33,31,36,36,35,30,33,37,29,42,45,38,41,39,46,23,36,27,24,36,47,46,34,35,37,43,42,35,38,48,38,32,39,36,39,37,42,30,40,40,37,34,39,33,46,27,25,35,38,41,40,34,42,31,29,33,41,41,38,25,33,25,39,24,37,45,22,1e+08,34,23,17,21,28,35,31,35,41,36,45,37,37,25,35,33,28,37,37,37,40,26,37,32,31,36,36,32,29,39,28,38,39,34,34,37,28,43,39,41,34,28,29,33,42,39,21,31,27,30,41,32,33,25,29,36,33,35,43,37,36,41,45,39,34,39,28,36,38,43,28,30,34,24,28,30,24,33,37,36,30,26,33,24,45,39,24,38,31
32,33,31,39,42,41,39,32,29,33,37,29,40,35,26,39,25,35,31,26,41,31,33,33,42,32,35,30,26,35,44,30,39,38,36,37,33,38,36,32,38,36,31,38,44,35,36,39,34,28,40,33,35,36,38,33,36,38,36,37,33,29,42,32,35,40,34,38,34,38,35,39,36,33,34,37,41,36,38,33,34,36,37,30,37,36,37,36,32,40,31,35,31,37,39,37,38,34,39,30,29,37,35,38,32,37,32,40,35,38,34,1e+08,25,32,25,35,32,38,41,35,26,30,38,33,28,39,38,44,32,35,39,34,32,34,39,40,36,37,27,36,35,31,39,34,31,33,31,38,40,35,36,24,35,36,47,35,32,32,32,37,25,32,30,30,31,30,31,41,31,41,37,36,33,40,36,38,34,39,33,31,32,37,39,31,37,39,36,32,36,36,34,26,37,34,32,30,35,34,32,36
22,28,21,21,21,23,23,27,21,21,21,26,28,22,20,24,30,23,28,17,25,23,31,22,21,21,17,28,33,27,27,23,26,29,29,21,28,30,27,24,23,26,30,28,21,27,25,23,17,30,27,32,27,22,28,25,27,23,24,29,24,30,27,24,20,20,26,19,21,26,22,27,23,24,29,29,28,19,21,22,27,29,25,29,28,27,28,21,30,21,29,26,26,21,30,26,25,26,26,29,29,27,25,18,18,28,25,23,26,18,23,25,1e+08,28,20,28,29,25,26,26,24,26,26,30,23,27,27,22,24,30,25,29,21,22,24,24,28,20,23,22,29,31,24,27,27,27,28,30,25,26,23,22,17,21,23,25,28,28,27,20,18,33,29,20,27,25,29,24,26,24,26,25,26,22,30,21,25,31,25,28,25,16,26,28,22,28,21,25,22,28,20,19,22,25,26,27,23,20,29,27
36,36,30,40,32,31,32,43,14,34,29,38,32,22,29,25,41,27,38,23,30,41,31,37,40,21,24,37,43,24,33,24,24,29,28,24,33,34,33,27,23,20,27,31,35,30,28,28,29,26,25,28,27,21,26,28,25,25,42,25,39,35,27,26,28,24,29,22,26,23,28,27,27,32,26,28,29,23,26,27,38,25,30,27,24,26,25,27,43,28,23,24,25,22,34,27,38,41,31,33,23,29,43,31,34,27,39,26,25,38,17,32,28,1e+08,40,38,25,30,22,26,17,22,27,25,20,25,40,36,29,25,23,33,42,23,27,34,27,27,16,41,29,38,23,27,22,28,28,41,21,24,24,16,37,36,27,24,24,39,36,33,24,32,27,29,40,35,30,26,24,27,26,27,26,28,27,30,25,42,27,29,26,30,27,24,37,29,30,41,28,29,25,19,37,25,38,26,26,34,25,36
42,38,30,33,28,34,31,35,14,30,24,43,30,20,32,18,30,24,38,19,29,38,30,37,36,17,24,41,29,20,31,23,22,21,30,27,28,27,22,22,26,25,30,29,30,23,26,19,22,27,22,16,24,25,19,25,21,23,32,22,26,32,28,25,26,22,26,23,22,26,24,24,25,31,20,21,27,24,24,23,31,23,25,22,22,22,20,27,32,22,18,20,23,23,30,26,34,32,25,25,24,20,33,28,31,29,32,23,24,32,21,25,20,40,1e+08,29,21,25,23,23,14,21,27,24,22,18,35,27,27,27,26,28,30,19,26,32,30,25,15,31,25,28,22,25,23,25,21,31,28,19,22,14,30,39,24,23,26,37,28,29,18,23,22,31,30,38,23,30,20,25,26,20,24,25,22,23,23,36,21,27,24,34,22,22,36,29,29,36,26,25,22,16,33,25,35,22,24,38,21,27
41,46,33,34,37,42,36,42,20,36,30,38,34,27,26,33,32,29,34,27,33,34,30,37,45,24,30,42,36,35,34,27,38,31,32,33,42,43,37,32,27,33,33,41,37,30,39,29,31,30,36,34,37,34,36,32,29,40,36,32,43,31,31,33,35,33,39,33,35,38,34,31,30,32,36,31,36,31,38,33,39,31,35,41,35,33,37,34,38,38,25,31,31,26,36,34,40,41,38,32,32,35,40,36,33,37,36,32,30,41,28,35,28,38,29,1e+08,33,39,32,33,17,36,32,35,21,33,45,46,30,34,34,34,45,27,34,41,30,33,23,38,37,36,35,33,30,34,29,39,33,26,30,20,37,47,30,33,29,36,29,43,25,36,29,31,46,35,34,36,29,37,30,32,33,31,31,31,31,46,33,34,28,39,37,34,35,41,37,42,34,37,34,22,46,33,36,30,28,38,39,43
33,31,29,30,28,33,30,29,39,24,44,33,36,42,30,33,36,40,35,29,31,23,36,35,32,38,25,27,35,46,35,30,40,32,39,40,36,36,26,33,38,38,34,31,28,38,43,32,30,33,49,43,38,45,44,37,41,40,30,41,31,29,34,42,35,29,38,39,40,42,36,40,37,34,47,36,33,27,34,43,32,36,35,51,36,34,46,33,28,26,33,37,39,35,33,37,31,30,36,42,40,36,28,29,29,47,29,33,43,24,35,32,29,25,21,33,1e+08,32,32,33,27,39,33,49,23,37,38,31,39,44,43,42,26,35,28,31,34,31,28,33,42,30,41,38,39,42,38,29,33,44,40,38,30,31,31,45,41,30,36,27,27,44,33,32,36,33,40,29,31,43,36,34,37,39,48,32,38,31,47,46,42,26,32,46,29,34,42,27,33,42,31,26,30,34,32,38,38,23,44,32
37,44,31,37,40,36,36,33,23,33,39,40,42,33,18,29,28,31,34,24,42,31,30,45,42,24,29,32,29,38,43,26,38,45,39,39,41,42,34,33,36,38,32,38,49,28,43,41,36,32,39,30,33,37,41,33,32,43,32,39,38,32,42,31,37,33,33,40,39,41,46,31,32,32,36,47,49,43,39,35,38,33,39,36,38,30,40,38,32,41,28,30,27,34,46,31,26,37,40,34,32,31,33,39,30,35,42,38,39,31,31,38,25,30,25,39,32,1e+08,48,30,21,32,38,34,20,32,40,41,33,35,39,36,36,33,35,29,34,45,26,45,35,30,45,38,31,36,29,34,40,32,28,23,43,40,37,39,29,33,53,37,21,35,26,32,43,31,34,42,28,34,34,34,39,37,40,33,41,39,31,34,40,48,38,35,36,38,39,31,44,35,37,24,38,25,38,39,33,38,35,34
33,38,36,30,37,28,33,29,29,29,38,32,40,38,27,37,24,30,33,29,37,27,33,35,32,27,28,28,24,40,39,27,35,38,42,41,37,40,32,35,35,36,27,35,40,27,45,46,35,34,35,31,34,43,43,35,36,45,32,38,37,28,42,30,40,36,39,45,39,40,49,38,39,37,33,47,49,42,47,42,31,34,44,37,35,33,39,36,27,41,31,28,29,41,40,36,31,37,42,30,35,36,26,42,32,40,34,39,41,30,35,41,26,22,23,32,32,48,1e+08,39,32,42,46,28,21,30,29,36,28,35,41,34,32,34,33,32,35,54,37,31,37,31,52,38,27,35,27,26,48,29,31,29,34,30,38,36,34,27,39,29,26,29,20,34,34,29,35,38,27,37,30,33,47,35,39,38,45,35,38,31,41,47,36,39,28,37,34,25,50,41,42,35,26,26,33,41,36,27,40,30
28,35,33,29,37,30,35,25,35,33,35,25,32,40,27,34,23,35,30,30,32,24,35,33,35,35,32,26,26,43,32,30,42,31,40,34,32,35,31,43,41,39,40,33,36,39,36,32,28,36,37,30,41,45,39,40,40,44,28,41,36,27,38,44,42,38,36,40,45,41,35,40,46,37,36,33,38,38,43,44,31,41,31,36,32,36,38,41,29,33,35,37,37,34,38,42,34,28,36,36,43,35,27,33,31,42,29,37,42,34,41,35,26,26,23,33,33,30,39,1e+08,26,40,32,33,28,37,30,28,38,39,36,37,31,37,26,33,32,38,32,31,40,32,38,39,39,37,35,25,43,43,39,29,34,33,35,41,39,26,34,36,29,34,34,31,32,33,35,33,34,42,40,40,39,37,38,33,40,32,37,44,41,35,29,33,26,32,33,26,33,36,33,27,28,35,29,41,38,32,43,37
20,20,23,19,24,18,24,19,34,23,32,16,22,36,31,41,18,29,17,38,29,13,31,18,23,40,33,19,15,38,23,21,39,25,32,33,25,21,26,29,29,32,28,23,21,29,29,32,34,22,34,30,30,28,35,31,25,30,15,32,27,17,29,29,33,29,28,33,32,35,30,31,24,29,28,29,30,30,29,30,21,30,27,25,27,26,33,21,20,30,26,29,28,35,23,31,27,19,23,24,32,27,16,34,21,30,21,28,32,15,36,26,24,17,14,17,27,21,32,26,1e+08,35,31,33,22,29,18,23,23,29,31,29,17,28,28,25,30,29,48,20,28,17,35,33,29,30,28,16,35,29,24,39,17,19,25,31,30,18,18,22,41,24,24,29,19,17,28,24,22,33,30,28,32,29,32,27,34,24,31,27,30,20,22,32,18,22,23,17,22,27,30,45,17,26,19,28,31,21,32,27
28,33,29,33,35,31,31,25,44,30,33,29,32,41,26,34,26,38,25,36,34,25,39,32,26,37,37,26,26,44,32,34,50,34,38,40,32,27,32,39,44,49,44,29,32,40,44,34,31,33,46,38,46,51,46,39,40,46,27,39,36,27,36,51,43,31,33,46,51,44,38,43,45,39,37,37,39,39,37,44,32,42,40,43,38,41,44,35,27,30,40,45,45,35,35,44,33,35,38,35,43,36,27,37,27,41,26,34,51,25,45,30,26,22,21,36,39,32,42,40,35,1e+08,37,37,24,34,31,32,38,41,41,40,28,39,29,33,34,34,33,33,47,29,40,40,39,40,43,31,40,41,39,29,35,32,31,39,38,25,31,26,30,48,36,37,30,26,49,30,28,48,43,42,47,39,37,33,40,36,37,41,48,33,36,41,30,37,36,23,30,33,35,29,30,34,26,45,39,25,45,31
42,39,30,38,41,34,31,32,30,30,38,39,40,38,23,31,31,37,33,28,39,30,33,36,31,32,30,36,27,37,42,31,34,38,41,37,37,40,36,37,39,39,38,38,37,33,38,39,34,34,39,35,35,38,40,40,36,38,36,38,33,36,41,34,37,33,38,36,34,38,38,39,33,34,35,41,48,43,36,36,30,34,40,34,34,39,32,36,34,28,39,30,31,35,41,40,33,34,42,32,34,38,31,41,22,37,29,39,36,33,37,38,26,27,27,32,33,38,46,32,31,37,1e+08,38,24,37,36,34,34,38,43,36,31,29,35,33,44,39,31,33,38,31,40,39,37,38,31,39,41,28,34,27,38,37,33,38,32,35,38,33,26,35,29,28,37,33,36,45,29,37,34,35,37,38,38,35,44,34,33,40,37,46,36,33,34,41,37,32,38,42,39,26,30,29,33,34,36,33,38,36
31,33,23,34,31,34,31,28,38,29,36,32,33,34,25,32,31,37,34,35,34,28,32,33,32,39,34,29,25,45,30,35,42,35,43,41,33,31,30,37,38,40,37,30,36,37,42,36,35,35,47,38,43,43,40,36,37,39,29,42,30,27,35,33,40,40,35,34,44,40,41,38,39,38,38,35,32,30,39,39,29,41,31,44,35,36,46,34,28,28,35,41,45,39,33,39,33,30,36,44,37,35,26,34,23,46,28,39,44,26,37,33,30,25,24,35,49,34,28,33,33,37,38,1e+08,27,38,32,33,38,43,38,43,27,38,30,27,35,33,31,32,48,27,38,38,40,40,39,26,45,35,40,34,31,27,35,41,45,27,31,27,27,40,34,34,33,29,42,37,33,42,39,38,38,32,34,33,41,32,42,37,42,30,32,41,30,37,31,26,32,40,38,25,30,35,30,37,38,26,40,36
21,22,23,25,23,20,26,24,24,25,23,24,24,25,23,26,17,25,24,25,25,22,22,21,25,26,26,19,18,24,22,29,29,27,26,28,23,20,24,26,25,30,26,26,19,26,23,27,21,24,29,30,27,28,26,30,26,26,20,24,22,19,25,25,28,25,23,27,28,26,22,23,28,24,27,18,25,23,26,28,25,27,20,25,26,27,28,29,24,22,28,29,28,29,22,28,23,21,23,27,29,25,23,22,24,27,21,26,30,22,25,28,23,20,22,21,23,20,21,28,22,24,24,27,1e+08,28,19,18,24,24,21,29,26,29,24,24,25,27,24,23,27,20,24,27,25,24,30,19,29,27,31,25,21,26,29,26,27,20,17,25,22,24,24,23,21,21,24,25,27,29,34,26,24,25,20,24,24,22,27,26,25,18,24,23,23,23,21,18,22,24,23,23,21,25,23,30,24,26,27,23
27,27,29,30,37,33,28,24,33,29,35,27,31,33,27,27,23,38,29,32,29,28,33,27,28,37,29,22,26,35,36,39,37,34,41,33,37,29,28,39,34,39,34,30,30,39,36,40,33,33,42,42,43,31,43,40,32,38,27,38,35,22,36,39,33,37,40,35,39,38,35,40,36,36,38,35,33,28,34,34,32,37,36,42,30,34,41,35,26,29,41,37,37,37,28,38,31,37,38,37,36,37,28,33,25,37,27,32,37,29,35,39,27,25,18,33,37,32,30,37,29,34,37,38,28,1e+08,28,29,29,36,35,41,32,33,33,34,37,32,27,32,36,30,37,32,39,41,39,31,37,34,35,29,33,32,37,37,39,25,29,32,29,33,35,28,28,26,34,29,31,41,35,40,38,29,38,35,32,29,41,37,36,29,33,40,30,32,33,29,32,42,38,26,29,33,28,32,37,28,37,37
47,42,30,42,37,46,38,52,23,31,34,52,40,30,28,27,40,32,46,23,36,44,36,51,42,20,31,42,40,34,42,26,32,33,31,32,36,45,31,32,33,36,31,38,41,33,27,31,33,30,32,30,34,32,31,33,32,33,41,30,35,43,28,30,32,25,36,33,31,35,31,34,31,33,30,40,36,29,32,33,39,30,37,34,32,31,26,32,45,26,30,30,30,27,32,36,35,41,37,36,31,30,40,35,32,37,42,38,36,46,33,38,27,40,35,45,38,40,29,30,18,31,36,32,19,28,1e+08,44,33,31,38,33,43,28,31,36,37,36,20,38,32,33,38,34,31,30,31,45,31,31,30,19,43,42,32,32,31,44,40,38,21,34,28,30,51,38,28,31,31,39,30,32,28,35,42,30,31,43,28,36,34,44,38,31,40,40,33,49,38,33,28,19,40,28,40,34,30,38,33,38
32,33,28,41,40,44,38,39,23,36,34,41,37,29,24,38,30,35,35,23,39,32,29,39,45,24,36,35,34,33,43,27,37,34,32,30,37,44,32,29,33,29,27,38,50,29,33,36,43,32,34,26,31,37,36,31,30,43,36,36,39,26,35,31,31,36,35,38,36,37,40,33,33,30,29,36,37,32,36,35,37,26,30,31,36,35,33,30,38,44,24,33,30,32,34,36,37,45,40,29,29,32,40,39,29,36,33,33,29,45,28,44,22,36,27,46,31,41,36,28,23,32,34,33,18,29,44,1e+08,28,30,37,29,44,32,35,37,31,40,23,37,33,31,42,33,33,30,31,41,33,25,29,17,36,41,37,34,29,34,33,44,23,28,26,29,38,29,27,45,26,33,32,32,31,30,30,34,36,42,35,30,33,42,40,35,41,44,41,37,43,30,36,18,37,24,36,34,33,39,32,41
35,36,23,34,30,32,32,33,32,26,37,36,36,38,23,19,32,44,36,26,29,35,27,36,34,27,25,31,28,37,37,30,37,32,34,42,34,29,28,36,49,35,37,35,34,34,39,31,26,29,42,32,41,39,37,38,38,43,27,37,26,32,34,35,41,28,39,41,36,37,35,37,40,33,35,32,34,30,41,37,25,38,38,37,26,40,33,40,30,27,32,38,37,31,35,42,34,32,34,38,36,28,29,30,25,46,27,31,41,30,37,32,24,29,27,30,39,33,28,38,23,38,34,38,24,29,33,28,1e+08,34,36,41,32,35,21,32,32,35,23,31,32,34,31,35,36,33,34,32,35,42,40,32,37,31,29,36,34,33,31,31,21,41,34,33,38,33,40,33,28,39,42,33,34,53,36,23,30,30,33,38,41,34,30,33,34,27,49,28,31,34,29,19,32,32,35,41,38,27,38,33
32,36,27,31,31,32,30,30,36,29,41,36,33,40,22,28,33,42,33,32,33,28,36,36,34,37,28,28,34,40,38,32,42,34,44,36,33,34,29,36,38,43,40,28,32,38,36,33,30,33,44,39,39,39,41,33,44,36,29,40,36,32,40,46,40,36,36,39,39,42,38,41,37,36,44,36,39,34,38,35,29,39,35,41,38,34,45,39,36,24,40,43,39,34,42,41,37,37,39,38,38,35,23,35,24,45,25,38,41,31,37,35,30,25,27,34,44,35,35,39,29,41,38,43,24,36,31,30,34,1e+08,43,40,32,31,29,34,38,32,30,34,44,29,41,40,40,42,38,25,37,40,43,33,36,32,33,48,42,32,33,31,27,40,42,28,33,28,37,35,32,44,41,37,39,39,39,36,39,36,41,41,39,35,30,42,28,31,35,30,35,36,32,24,33,42,31,36,43,29,44,39
33,42,31,35,38,33,33,27,29,33,40,35,42,39,32,41,29,37,36,30,35,29,39,39,35,33,37,31,32,38,46,30,40,39,41,40,40,38,30,31,43,36,37,37,39,34,45,38,37,36,43,37,37,43,49,36,36,41,30,38,34,33,39,43,36,34,41,38,39,45,42,51,35,35,43,47,45,42,40,41,31,34,46,38,37,33,38,36,31,33,34,43,33,37,43,43,34,38,41,35,39,36,29,44,30,43,31,46,42,30,37,39,25,23,26,34,43,39,41,36,31,41,43,38,21,35,38,37,36,43,1e+08,35,34,28,31,33,44,46,33,37,38,30,47,47,38,44,35,37,40,32,34,30,34,32,34,37,35,35,37,30,26,40,34,34,34,33,35,40,31,40,32,35,41,38,51,34,44,36,36,40,41,38,36,38,33,39,41,28,42,43,38,29,31,30,35,37,36,33,40,32
33,37,30,35,34,34,33,30,40,31,40,33,38,37,28,28,33,38,28,31,37,31,35,38,36,39,29,27,29,47,35,32,48,33,43,41,36,31,32,40,36,45,40,33,37,46,44,37,29,32,46,38,47,42,45,38,40,45,31,45,29,33,37,45,43,38,40,42,47,41,34,40,39,37,44,38,38,36,52,44,38,37,42,42,33,39,42,37,30,31,43,44,45,39,37,47,36,34,34,44,45,34,28,33,28,49,33,39,40,30,40,34,29,33,28,34,42,36,34,37,29,40,36,43,29,41,33,29,41,40,35,1e+08,31,39,30,32,41,37,26,39,47,31,38,38,47,36,35,34,41,43,40,32,39,33,35,44,45,31,33,28,24,45,38,28,36,29,46,35,30,49,36,39,45,38,42,29,39,30,48,42,45,33,31,41,30,33,42,30,32,41,36,28,30,33,33,42,41,28,47,33
36,37,32,40,39,47,34,42,20,33,28,39,38,28,24,34,27,30,38,26,36,36,30,42,41,25,33,38,32,25,44,26,28,33,29,31,37,42,32,31,30,28,29,36,42,31,29,31,42,26,29,30,33,32,32,33,28,32,43,32,39,29,31,29,30,33,39,35,35,31,34,38,31,36,23,31,33,31,29,33,41,27,26,27,31,32,31,30,38,36,22,28,28,32,34,32,37,39,43,32,28,31,38,34,33,32,33,34,28,48,26,32,21,42,30,45,26,36,32,31,17,28,31,27,26,32,43,44,32,32,34,31,1e+08,26,33,36,31,35,19,43,30,35,27,29,30,31,25,41,36,26,32,18,40,46,31,32,27,37,38,47,25,28,28,29,46,34,27,40,26,32,33,34,32,29,34,32,27,39,32,29,34,43,36,32,43,37,37,41,41,33,34,19,43,29,35,31,34,44,31,38
21,28,29,29,33,27,30,26,40,27,35,24,33,41,27,32,22,32,25,39,35,20,33,29,29,38,37,23,21,39,33,25,40,33,32,43,33,32,30,36,42,40,33,30,29,35,37,36,37,27,39,30,31,39,37,28,33,40,25,35,25,21,31,39,41,38,42,43,41,39,38,33,35,32,33,32,32,33,44,35,22,31,27,38,32,32,39,35,29,31,34,36,38,38,31,39,29,28,31,36,41,35,27,35,28,35,28,36,41,24,37,34,22,23,19,27,35,33,34,37,28,39,29,38,29,33,28,32,35,31,28,39,26,1e+08,26,28,28,30,28,29,37,29,35,31,34,32,39,23,38,39,39,38,27,27,38,38,41,22,28,27,33,31,28,32,24,26,39,26,28,40,39,35,36,38,30,32,41,31,35,31,40,25,33,33,27,32,31,23,33,31,39,29,26,31,24,36,36,24,39,30
29,30,34,35,36,33,41,34,24,38,31,29,32,26,28,42,26,30,31,32,42,30,36,24,36,29,35,33,27,28,34,25,35,35,33,34,33,37,32,31,26,30,26,34,31,32,30,35,34,27,32,31,32,31,32,30,29,34,34,33,37,24,36,31,29,33,30,30,31,35,31,34,30,32,31,34,30,33,30,33,30,33,33,26,42,33,28,30,33,39,32,30,34,34,35,31,35,28,33,26,26,30,34,32,34,28,31,33,35,34,32,39,24,27,26,34,28,35,33,26,28,29,35,30,24,33,31,35,21,29,31,30,33,26,1e+08,38,29,33,29,31,27,28,35,30,34,33,31,33,31,25,30,24,29,36,36,34,29,35,30,36,34,28,26,30,27,30,29,40,27,32,33,35,30,31,26,42,31,36,31,29,29,31,39,33,34,35,31,35,29,34,35,29,38,30,25,35,27,41,30,32
29,32,36,35,42,35,42,35,27,31,26,30,31,31,35,39,29,33,34,35,38,33,39,34,38,31,31,31,29,32,39,26,37,29,35,34,33,31,36,33,29,33,33,36,33,34,34,29,34,29,33,34,34,38,33,31,33,36,40,36,41,31,30,31,35,37,29,34,33,36,32,34,34,32,38,34,33,31,31,36,34,31,34,30,36,35,34,34,39,34,31,32,31,29,33,37,42,35,34,29,27,36,37,32,39,39,42,36,38,37,31,40,24,34,32,41,31,29,32,33,25,33,33,27,24,34,36,37,32,34,33,32,36,28,38,1e+08,31,34,25,36,34,33,36,36,36,34,32,37,31,33,28,26,33,38,33,33,28,36,31,37,26,34,33,34,32,33,33,36,28,35,33,33,31,35,33,38,36,38,34,36,29,34,32,32,36,31,35,35,32,32,32,31,40,34,27,38,30,46,32,39
37,40,29,38,33,34,32,34,34,32,34,40,40,32,28,28,32,32,36,25,37,36,36,41,36,34,32,31,32,36,41,28,32,38,39,34,35,31,37,33,38,37,39,37,31,36,35,36,28,38,36,36,34,37,36,34,34,32,32,37,28,32,40,36,34,36,40,34,33,35,32,39,31,36,32,43,46,38,37,35,33,37,39,36,35,39,34,29,36,31,37,35,31,34,42,43,36,35,40,35,37,29,31,39,22,39,30,35,38,32,36,36,28,27,30,30,34,34,35,32,30,34,44,35,25,37,37,31,32,38,44,41,31,28,29,31,1e+08,35,26,33,34,32,38,38,36,35,36,32,38,31,34,27,33,31,35,39,38,37,33,31,24,32,34,29,37,36,38,39,30,40,36,38,35,36,40,32,34,34,33,37,32,36,36,34,30,39,32,37,39,42,32,26,30,31,37,37,36,34,35,33
34,36,35,39,39,31,34,29,26,36,37,32,37,39,34,40,23,33,33,32,38,29,35,39,37,24,38,27,23,40,41,27,38,35,34,44,37,43,37,32,34,35,26,40,45,28,40,42,35,32,43,30,39,44,46,33,30,40,34,38,36,26,46,35,40,37,42,43,40,46,48,43,32,39,35,43,45,46,45,39,36,35,44,29,32,32,38,34,30,42,33,31,32,38,37,41,28,41,41,32,34,31,31,48,35,41,36,40,42,35,36,37,20,27,25,33,31,45,54,38,29,34,39,33,27,32,36,40,35,32,46,37,35,30,33,34,35,1e+08,33,37,39,32,51,39,31,32,28,35,45,29,31,23,37,32,38,39,31,32,41,37,25,33,27,32,39,33,31,41,24,37,32,38,47,40,37,36,45,34,38,30,39,45,41,37,32,39,44,33,50,42,41,32,32,27,33,39,35,32,40,34
18,21,33,20,26,19,24,21,30,23,30,21,25,32,28,37,14,29,20,36,28,16,39,15,17,35,40,13,13,41,24,21,36,25,25,36,27,31,29,28,35,30,28,19,23,26,34,28,29,24,32,28,25,40,40,27,30,32,19,36,24,16,34,32,35,35,26,37,34,44,38,33,30,32,27,29,31,42,35,34,15,32,27,26,28,29,31,28,19,29,26,35,30,36,27,31,31,22,29,20,30,25,17,33,28,33,20,31,37,20,32,27,23,16,15,23,28,26,37,32,48,33,31,31,24,27,20,23,23,30,33,26,19,28,29,25,26,33,1e+08,18,34,18,44,35,27,32,26,15,34,24,26,33,18,18,25,36,31,16,24,21,33,28,20,28,19,16,25,25,23,35,29,30,41,31,31,31,38,23,35,31,29,18,24,32,18,25,24,18,26,32,40,45,19,27,18,34,35,20,38,25
36,38,34,45,41,46,38,41,21,40,35,48,41,29,29,29,33,31,35,21,37,36,33,50,45,24,36,35,32,35,34,28,32,34,32,30,36,41,37,32,28,35,34,40,42,27,37,32,37,32,36,29,34,34,38,34,33,35,43,31,45,37,38,33,33,34,30,33,35,32,39,34,33,37,24,33,34,34,39,37,36,29,37,33,33,37,34,33,38,33,28,32,31,32,42,34,36,40,41,34,30,32,36,37,34,38,39,31,32,46,29,36,22,41,31,38,33,45,31,31,20,33,33,32,23,32,38,37,31,34,37,39,43,29,31,36,33,37,18,1e+08,36,32,36,30,33,29,33,39,33,29,34,21,49,44,33,33,31,41,40,44,29,41,26,33,41,35,30,35,29,39,32,29,34,36,31,37,34,40,37,37,36,37,46,31,46,34,41,40,39,29,33,21,49,33,38,33,37,40,30,40
32,33,29,34,35,31,30,26,36,27,37,33,34,41,26,32,25,37,31,37,35,30,34,31,30,34,33,26,25,45,35,32,46,30,38,46,35,35,32,38,41,43,43,31,33,41,49,36,32,34,50,34,45,48,43,41,42,41,31,42,37,28,38,45,50,41,36,40,44,43,38,38,41,34,40,38,41,40,44,47,30,44,36,41,35,37,46,38,24,29,41,45,41,35,43,46,35,32,36,43,44,37,24,34,27,45,25,43,42,26,39,35,29,29,25,37,42,35,37,40,28,47,38,48,27,36,32,33,32,44,38,47,30,37,27,34,34,39,34,36,1e+08,21,46,39,40,36,38,26,41,35,42,34,36,29,39,46,43,29,39,29,25,44,33,28,34,27,44,34,30,46,38,44,40,35,38,30,42,36,47,44,49,38,36,39,27,36,35,26,36,44,36,26,29,35,32,39,40,27,41,38
34,33,27,33,28,30,33,34,21,34,29,30,35,22,25,29,43,27,32,20,31,33,31,35,37,22,25,39,38,25,32,27,28,30,31,26,33,30,30,29,27,32,29,35,32,24,25,27,23,26,31,30,33,29,31,30,28,29,37,26,28,28,32,28,24,23,27,27,28,29,29,33,32,31,27,33,32,28,30,25,42,26,30,29,28,30,26,28,38,24,25,28,27,23,32,33,30,37,34,33,28,29,36,30,25,31,43,28,26,27,28,31,31,38,28,36,30,30,31,32,17,29,31,27,20,30,33,31,34,29,30,31,35,29,28,33,32,32,18,32,21,1e+08,29,28,32,28,28,42,28,25,29,20,35,37,29,28,30,32,32,29,20,30,32,31,38,36,30,32,26,28,28,28,25,28,25,27,27,32,30,32,31,29,31,30,34,33,37,34,32,26,26,21,34,26,35,27,29,36,31,33
33,31,41,30,38,32,34,24,35,29,41,36,38,43,35,38,27,39,32,35,40,30,47,40,39,37,37,28,25,48,39,30,42,38,42,48,40,36,34,37,40,36,35,32,42,32,47,43,48,37,44,33,36,48,47,37,34,43,29,44,33,26,40,34,45,42,43,43,44,49,49,43,40,44,39,40,41,53,48,42,28,34,45,41,40,37,42,34,29,39,35,40,35,40,38,41,32,36,46,34,42,34,28,51,37,42,34,46,43,32,38,39,24,23,22,35,41,45,52,38,35,40,40,38,24,37,38,42,31,41,47,38,27,35,35,36,38,51,44,36,46,29,1e+08,45,40,43,33,33,48,34,36,36,35,36,43,46,38,28,37,34,34,34,31,39,35,26,37,40,26,39,38,37,52,42,44,42,52,36,39,38,42,44,37,38,31,36,35,29,45,40,49,34,31,30,33,40,41,30,44,37
30,42,28,31,36,32,31,28,34,29,36,39,35,40,32,30,30,32,35,38,32,33,37,39,28,36,32,28,29,39,29,28,37,36,42,43,33,32,30,37,39,37,36,34,38,37,41,36,31,34,42,34,38,45,40,37,33,40,27,39,32,31,38,43,39,37,40,41,45,45,40,39,36,32,34,43,44,36,43,41,27,41,39,36,35,36,36,34,30,32,36,42,39,37,36,44,34,31,38,38,38,32,27,40,27,43,31,38,40,32,39,34,27,27,25,33,38,38,38,39,33,40,39,38,27,32,34,33,35,40,47,38,29,31,30,36,38,39,35,30,39,28,45,1e+08,33,39,33,27,38,30,33,33,32,29,31,47,36,34,34,30,29,35,27,27,37,32,40,33,30,46,38,38,41,41,41,34,46,37,38,36,40,38,30,35,27,35,30,27,37,41,37,33,27,27,32,45,35,30,44,30
34,29,28,32,36,33,28,27,32,32,38,31,33,36,25,31,29,38,30,30,31,27,33,31,39,35,29,27,26,41,39,34,43,34,40,35,34,36,25,40,38,41,41,33,33,41,39,31,33,31,45,36,45,42,44,39,38,43,29,45,29,27,35,37,37,36,34,37,44,44,31,39,37,32,41,33,35,32,33,41,29,40,29,37,34,38,38,33,29,33,40,39,37,32,33,46,35,30,37,38,38,33,30,31,28,39,29,31,40,28,34,31,27,22,23,30,39,31,27,39,29,39,37,40,25,39,31,33,36,40,38,47,30,34,34,36,36,31,27,33,40,32,40,33,1e+08,42,39,33,34,38,38,30,30,35,33,48,41,32,36,31,26,45,37,28,31,33,43,32,31,41,34,39,36,36,35,36,35,31,41,40,45,33,33,38,33,31,40,29,29,35,30,23,30,38,27,41,37,33,39,34
26,32,32,35,30,34,32,29,34,34,36,28,37,39,28,35,27,36,30,32,38,27,36,34,35,33,37,31,30,38,35,32,39,38,44,41,36,38,30,38,37,34,41,33,39,36,42,42,40,37,42,38,36,47,46,38,35,37,30,50,35,28,41,39,31,40,40,35,44,43,41,45,40,35,39,40,39,42,41,41,34,38,38,35,38,37,45,34,30,36,37,38,37,37,37,46,36,34,43,34,42,42,31,37,34,43,32,41,41,30,34,33,27,28,25,34,42,36,35,37,30,40,38,40,24,41,30,30,33,42,44,36,31,32,33,34,35,32,32,29,36,28,43,39,42,1e+08,38,35,42,35,41,31,34,35,35,43,45,30,37,33,25,38,30,35,32,27,39,40,30,42,37,39,47,33,38,33,41,36,39,38,42,36,37,42,34,33,34,31,35,39,38,32,30,36,29,41,38,33,42,39
27,31,25,33,35,28,27,27,34,29,37,29,33,32,23,30,26,36,32,31,35,30,30,32,33,30,28,24,29,37,31,34,40,35,35,36,34,26,28,37,33,42,38,33,28,38,33,31,28,33,45,38,41,41,37,36,36,30,26,35,32,24,31,38,35,32,33,36,40,34,34,39,37,33,36,30,33,30,34,37,26,43,26,35,36,39,44,33,32,26,39,38,39,33,34,38,35,32,36,39,41,35,27,31,25,39,30,34,41,27,37,31,28,28,21,29,38,29,27,35,28,43,31,39,30,39,31,31,34,38,35,35,25,39,31,32,36,28,26,33,38,28,33,33,39,38,1e+08,28,32,37,38,30,31,30,31,40,41,26,33,29,23,41,34,31,29,29,42,31,36,40,42,43,32,36,37,28,30,31,35,39,40,30,31,38,30,29,33,27,29,34,28,23,25,39,30,38,37,29,37,34
39,41,31,45,37,43,35,45,23,39,30,38,36,23,25,29,37,35,38,26,34,45,39,41,49,24,30,46,39,30,49,27,32,32,33,27,41,45,30,28,32,31,33,43,42,29,28,35,34,26,28,31,30,35,37,28,29,34,48,29,27,37,32,32,29,30,32,32,35,28,39,35,32,34,25,33,35,34,30,38,44,21,30,25,28,33,29,34,43,34,25,27,25,27,33,32,36,42,34,25,28,30,44,33,35,34,51,32,33,40,28,38,30,41,31,39,29,34,26,25,16,31,39,26,19,31,45,41,32,25,37,34,41,23,33,37,32,35,15,39,26,42,33,27,33,35,28,1e+08,30,27,31,18,41,50,32,24,28,42,37,38,16,30,29,34,40,36,29,41,24,33,28,31,28,36,32,30,25,39,35,28,34,40,40,33,41,32,41,46,38,32,32,17,40,27,38,30,30,41,27,43
31,36,30,34,41,31,31,29,34,27,37,33,35,43,37,39,26,31,30,31,38,30,37,35,32,30,35,31,21,40,38,33,39,40,41,45,39,33,31,30,42,37,38,33,40,39,46,42,38,36,39,36,40,42,46,41,35,40,31,40,36,28,44,38,45,40,43,42,40,43,45,42,37,46,31,42,40,42,48,38,29,37,37,43,34,41,40,34,28,39,32,37,41,41,35,40,34,29,41,33,39,38,30,43,29,44,33,42,42,28,43,40,25,21,28,33,33,40,48,43,35,40,41,45,29,37,31,33,35,37,40,41,36,38,31,31,38,45,34,33,41,28,48,38,34,42,32,30,1e+08,36,36,36,32,34,39,44,40,27,30,28,29,40,30,36,36,31,35,36,27,42,39,38,49,40,37,31,46,34,39,35,45,38,36,43,30,38,35,25,38,46,41,34,31,35,30,40,38,31,39,39
24,24,28,27,29,30,28,27,42,28,35,28,31,40,27,28,32,34,27,31,27,26,38,30,29,42,33,28,29,44,32,29,39,33,36,33,31,32,30,40,51,40,38,31,27,38,33,34,31,26,39,36,47,43,39,40,33,40,26,34,33,30,30,45,35,30,30,37,45,34,26,37,43,31,38,33,32,30,34,41,34,45,30,35,32,44,38,38,29,29,35,40,34,32,28,39,33,27,32,39,40,30,25,29,31,37,27,33,44,27,39,35,26,24,19,26,44,32,29,43,29,41,28,35,27,34,31,25,42,40,32,43,26,39,25,33,31,29,24,29,35,25,34,30,38,35,37,27,36,1e+08,41,35,28,28,34,38,35,24,34,25,26,39,33,31,33,25,40,28,28,42,49,36,37,48,36,32,39,37,36,39,46,25,28,31,26,33,34,26,30,33,29,32,28,36,28,38,42,28,40,34
25,33,29,34,27,31,27,27,34,31,34,26,38,38,26,34,25,35,36,28,33,26,31,32,29,37,32,27,25,33,33,31,44,33,34,34,33,31,29,46,44,44,39,32,33,37,37,39,35,33,39,36,38,41,36,38,34,41,30,37,33,28,31,41,39,36,38,41,41,38,34,36,43,40,29,35,37,28,38,39,30,39,31,39,33,43,38,41,27,32,35,40,44,36,34,38,32,35,37,38,42,31,31,36,34,42,28,37,44,33,41,36,23,24,22,30,40,28,31,39,24,39,34,40,31,35,30,29,40,43,34,40,32,39,30,28,34,31,26,34,42,29,36,33,38,41,38,31,36,41,1e+08,31,29,33,35,40,40,29,34,31,25,43,32,26,28,29,43,38,33,38,43,43,34,44,31,30,36,31,37,41,48,32,33,39,37,35,43,29,32,33,37,23,33,36,29,43,38,34,41,36
15,22,27,22,26,20,19,19,44,21,38,18,26,46,25,33,15,33,20,43,21,16,31,19,19,41,23,21,17,43,25,23,31,26,33,40,32,24,20,34,41,32,30,22,16,28,38,28,36,24,33,34,29,34,34,36,35,34,19,34,25,18,24,35,36,31,33,37,33,33,33,34,35,31,34,29,25,29,36,37,14,30,27,41,26,28,28,30,16,22,28,36,36,36,23,34,26,17,29,31,29,33,15,29,21,34,19,29,36,20,34,24,22,16,14,20,38,23,29,29,39,29,27,34,25,29,19,17,32,33,30,32,18,38,24,26,27,23,33,21,34,20,36,33,30,31,30,18,36,35,31,1e+08,20,19,26,34,35,19,22,16,35,34,29,32,18,18,32,21,23,32,35,29,40,37,30,29,38,25,37,36,37,21,19,38,18,21,27,16,25,34,36,40,18,24,22,31,39,18,40,28
40,47,30,43,36,42,30,43,20,31,35,46,41,28,26,28,33,31,37,24,36,37,26,46,42,24,33,36,36,29,40,28,32,36,37,32,34,37,32,31,28,35,40,36,40,27,34,37,33,32,36,28,40,37,35,37,31,31,40,29,36,41,31,33,33,30,38,32,34,31,41,36,33,33,28,38,35,36,37,35,39,27,38,36,27,32,31,35,39,27,32,31,33,29,40,34,32,45,33,37,29,36,36,39,25,37,37,33,31,42,28,35,17,37,30,37,30,43,34,34,17,35,38,31,21,33,43,36,37,36,34,39,40,27,29,33,33,37,18,49,36,35,35,32,30,34,31,41,32,28,29,20,1e+08,40,31,36,29,43,38,42,19,34,29,29,46,35,38,36,28,39,31,33,36,28,34,24,31,34,33,37,35,46,38,28,37,36,42,39,42,37,28,17,42,32,44,32,36,38,33,39
42,44,40,40,36,42,39,47,26,37,38,39,37,32,26,33,33,31,36,29,36,41,33,45,54,27,34,42,37,32,38,28,34,32,32,30,38,40,27,29,32,33,33,39,45,28,33,35,37,28,30,30,33,37,31,34,29,34,41,33,42,33,33,35,30,34,38,34,36,36,33,33,33,34,28,33,35,35,38,37,41,27,31,28,31,35,31,34,45,38,24,28,30,32,33,32,35,45,35,29,30,35,40,36,34,35,47,30,37,44,29,36,21,36,39,47,31,40,30,33,19,32,37,27,26,32,42,41,31,32,32,33,46,27,36,38,31,32,18,44,29,37,36,29,35,35,30,50,34,28,33,19,40,1e+08,33,36,30,45,33,49,28,29,25,34,39,38,32,42,22,36,33,28,32,30,29,36,31,42,32,33,37,42,41,32,50,36,39,40,32,31,34,23,45,30,38,35,31,51,33,37
30,29,28,35,35,33,35,29,24,37,32,33,36,27,23,35,28,30,32,24,38,29,32,34,38,30,36,28,25,31,37,26,34,37,36,36,35,34,35,33,31,33,32,35,40,29,34,40,32,32,35,28,34,37,34,32,30,33,29,34,30,22,36,30,34,33,30,35,35,37,33,39,33,31,29,34,39,37,36,29,29,28,33,31,33,30,34,28,29,42,31,32,34,34,35,34,30,27,36,34,30,31,32,36,30,36,30,38,35,33,33,47,23,27,24,30,31,37,38,35,25,31,33,35,29,37,32,37,29,33,34,35,31,38,36,33,35,38,25,33,39,29,43,31,33,35,31,32,39,34,35,26,31,33,1e+08,33,30,28,39,29,30,32,25,27,30,27,32,39,31,38,36,35,35,32,29,29,36,32,30,30,33,38,35,27,31,36,34,26,41,31,34,25,31,33,29,35,31,32,33,32
32,35,34,32,35,28,32,29,39,30,41,39,37,44,32,32,25,33,37,39,37,31,33,32,33,41,31,25,24,45,35,35,45,41,40,49,40,34,30,41,45,47,42,31,37,40,47,33,38,32,43,38,42,46,44,44,43,40,31,46,36,27,40,46,41,41,42,42,49,46,40,44,37,34,40,36,44,34,50,45,27,41,37,44,41,40,44,39,36,34,40,47,44,40,40,44,37,35,36,40,45,37,31,35,28,45,31,40,48,32,42,35,25,24,23,33,45,39,36,41,31,39,38,41,26,37,32,34,36,48,37,44,32,38,34,33,39,39,36,33,46,28,46,47,48,43,40,24,44,38,40,34,36,36,33,1e+08,43,29,38,31,30,40,32,39,34,26,46,37,28,46,42,42,48,41,39,37,41,32,44,45,49,35,33,42,29,33,37,26,38,43,42,28,28,35,31,47,37,33,48,37
26,34,27,33,34,25,25,28,33,30,41,36,32,36,25,26,31,41,30,37,34,24,27,29,33,37,32,24,25,45,33,32,45,34,36,39,32,31,32,38,36,45,42,32,30,39,43,30,31,34,44,38,40,42,40,36,41,34,29,39,33,32,36,43,38,35,39,39,43,41,37,36,35,40,44,33,36,33,39,39,27,42,36,40,33,36,41,33,30,32,37,38,40,36,35,42,29,29,35,37,48,40,30,31,26,47,31,37,43,27,39,32,28,24,26,29,41,29,34,39,30,38,32,45,27,39,31,29,34,42,35,45,27,41,29,28,38,31,31,31,43,30,38,36,41,45,41,28,40,35,40,35,29,30,30,43,1e+08,29,30,28,32,38,34,30,31,29,43,32,32,44,39,33,40,35,36,31,37,32,38,42,38,32,32,41,26,35,30,33,27,38,34,25,29,35,27,40,34,25,41,33
42,47,35,43,39,42,39,52,19,34,34,46,36,26,29,28,43,27,47,23,31,42,35,47,45,24,24,47,45,26,37,24,30,31,35,27,31,32,26,27,30,32,32,32,37,32,28,24,26,30,30,25,32,30,33,30,28,26,40,29,32,44,32,30,28,23,33,26,25,28,27,33,26,32,34,36,36,26,27,27,37,29,32,28,29,26,27,29,49,30,27,27,24,22,33,34,32,42,34,33,26,24,40,32,34,32,38,36,30,42,21,32,28,39,37,36,30,33,27,26,18,25,35,27,20,25,44,34,33,32,35,31,37,22,35,36,37,32,16,41,29,32,28,34,32,30,26,42,27,24,29,19,43,45,28,29,29,1e+08,36,39,24,33,29,33,47,39,31,34,28,35,29,29,28,33,34,32,28,41,29,28,26,39,31,31,41,32,38,44,38,32,26,24,44,26,44,27,27,45,30,34
37,34,32,34,35,32,33,32,26,36,32,41,38,28,19,27,35,26,40,23,36,34,38,40,35,28,32,37,36,35,34,28,35,35,34,38,31,47,36,31,35,33,31,39,40,27,37,41,34,31,37,28,35,38,37,29,30,35,35,38,36,33,33,31,34,30,31,33,40,36,40,34,35,31,36,41,34,36,35,36,36,32,37,31,32,32,36,36,33,33,28,30,29,31,45,30,32,39,33,36,32,31,34,40,32,35,41,32,38,36,31,32,27,36,28,29,36,53,39,34,18,31,38,31,17,29,40,33,31,33,37,33,38,28,30,31,33,41,24,40,39,32,37,34,36,37,33,37,30,34,34,22,38,33,39,38,30,36,1e+08,32,21,34,25,27,37,30,33,41,26,36,32,30,35,35,39,36,35,35,32,40,40,40,39,34,29,35,37,39,39,33,30,25,35,28,37,37,34,34,35,37
33,41,32,40,42,44,39,44,25,39,33,35,33,30,27,32,22,31,33,23,38,28,25,39,44,26,37,35,30,30,38,25,32,33,29,31,34,43,31,32,30,29,29,34,39,26,29,34,34,30,33,34,33,37,27,31,27,35,38,32,36,26,33,31,29,32,34,33,31,32,36,30,32,37,30,30,36,28,30,37,40,24,26,27,33,32,35,29,36,33,29,28,30,30,34,36,32,40,37,29,25,35,36,35,34,32,39,32,33,50,27,37,20,33,29,43,27,37,29,36,22,26,33,27,25,32,38,44,31,31,30,28,47,27,36,37,31,37,21,44,29,29,34,30,31,33,29,38,28,25,31,16,42,49,29,31,28,39,32,1e+08,29,27,25,32,39,34,27,37,24,35,34,37,27,30,31,39,31,37,30,30,31,37,37,29,50,39,34,43,35,27,35,24,52,31,35,28,33,48,33,34
15,22,27,23,26,23,29,25,33,25,35,20,28,35,31,41,14,26,19,36,28,16,29,18,22,31,37,19,17,35,22,20,26,26,26,29,27,25,33,27,26,27,26,24,24,21,24,27,30,26,26,27,22,27,30,28,24,26,19,27,30,16,33,24,31,30,25,27,29,31,27,29,21,23,27,24,24,28,24,25,18,28,22,27,31,24,28,27,27,31,25,25,30,33,24,24,32,20,24,23,26,31,23,32,24,30,19,29,28,25,30,25,18,24,18,25,27,21,26,29,41,30,26,27,22,29,21,23,21,27,26,24,25,33,34,26,24,25,33,29,25,20,34,29,26,25,23,16,29,26,25,35,19,28,30,30,32,24,21,29,1e+08,22,22,23,23,18,23,22,23,27,22,27,28,24,22,33,27,33,24,21,28,18,29,29,27,24,19,24,25,25,31,47,28,25,15,27,28,30,29,26
31,36,27,29,28,33,32,33,34,27,36,35,37,41,22,26,33,36,35,28,31,29,39,35,30,33,21,30,35,44,34,35,41,35,36,35,35,34,29,40,37,45,37,39,32,39,40,32,24,33,46,35,40,47,39,41,43,46,30,39,37,39,36,44,39,33,34,39,44,40,36,41,41,39,36,39,33,33,31,41,30,38,32,46,32,41,42,39,35,31,39,41,44,28,36,43,36,32,34,42,47,36,26,30,27,45,25,38,45,23,41,32,33,32,23,36,44,35,29,34,24,48,35,40,24,33,34,28,41,40,40,45,28,31,28,34,32,33,28,41,44,30,34,35,45,38,41,30,40,39,43,34,34,29,32,40,38,33,34,27,22,1e+08,33,25,37,34,48,32,31,40,36,35,37,41,37,27,36,35,45,41,45,32,32,38,31,31,41,30,32,41,30,26,36,34,30,46,37,28,41,35
27,25,19,27,29,26,27,27,26,24,29,26,25,31,25,21,28,35,26,26,30,25,35,31,29,29,26,24,31,32,28,33,38,30,37,27,24,28,28,31,34,31,32,28,26,32,31,27,26,30,37,38,38,28,31,30,32,28,27,32,27,23,30,38,30,27,36,30,30,32,25,35,30,31,38,26,29,23,29,30,34,32,24,34,30,37,36,31,26,21,33,34,35,30,32,37,29,28,35,40,29,30,25,28,20,37,26,29,31,23,32,30,29,27,22,29,33,26,20,34,24,36,29,34,24,35,28,26,34,42,34,38,28,28,26,33,34,27,20,26,33,32,31,27,37,30,34,29,30,33,32,29,29,25,25,32,34,29,25,25,22,33,1e+08,29,27,30,34,29,23,37,34,32,32,33,33,21,27,27,33,31,28,28,24,33,26,29,31,25,27,30,30,22,31,34,29,27,38,27,37,31
26,28,36,31,32,33,44,33,34,37,33,26,27,40,43,33,30,32,29,37,33,32,41,31,37,36,34,36,25,32,32,20,31,32,28,43,34,29,37,27,38,32,28,27,31,31,39,30,41,26,33,32,31,35,37,32,31,34,33,33,27,24,29,32,32,38,36,39,34,39,38,34,34,34,31,32,29,31,38,36,30,29,26,28,25,29,32,29,29,30,23,27,28,42,30,26,30,33,29,28,33,26,36,36,44,34,33,35,35,29,33,30,20,29,31,31,32,32,34,31,29,37,28,34,23,28,30,29,33,28,34,28,29,32,30,34,29,32,28,33,28,31,39,27,28,35,31,34,36,31,26,32,29,34,27,39,30,33,27,32,23,25,29,1e+08,34,33,26,24,25,32,32,31,39,36,37,39,40,29,29,29,38,30,34,30,37,26,35,33,32,33,38,29,33,29,36,28,35,35,30,35
40,47,31,45,31,44,33,43,19,31,36,46,39,26,26,23,46,31,42,21,28,42,36,46,43,24,29,44,41,35,39,24,30,37,36,29,38,37,31,29,31,30,34,32,38,36,36,32,28,34,34,33,37,34,39,32,33,34,51,35,33,48,34,32,33,26,34,34,33,39,34,32,36,29,36,42,37,30,38,34,40,30,33,38,30,31,31,30,40,28,29,33,30,28,40,39,34,40,35,34,33,28,36,33,34,35,38,33,31,41,25,31,27,40,30,46,36,43,34,32,19,30,37,33,21,28,51,38,38,33,34,36,46,24,27,32,37,39,19,41,34,38,35,37,31,32,29,40,36,33,28,18,46,39,30,34,31,47,37,39,23,37,27,34,1e+08,43,37,33,34,42,32,35,32,32,43,29,32,40,35,35,35,42,34,35,43,36,37,41,40,36,29,18,46,31,47,31,30,41,31,38
44,37,29,33,28,36,37,37,20,34,25,37,34,26,28,24,38,28,42,22,30,38,34,43,39,23,25,43,38,27,36,28,26,27,30,26,28,35,30,30,27,34,29,32,34,34,27,30,27,29,31,31,28,29,26,28,29,31,34,32,32,38,32,30,28,27,31,29,27,28,28,27,32,30,32,35,34,23,25,29,36,29,33,29,27,28,26,25,37,29,25,26,30,23,35,36,32,40,32,34,34,30,36,23,31,34,36,32,31,28,29,30,25,35,38,35,33,31,29,33,17,26,33,29,21,26,38,29,33,28,33,29,34,26,30,33,36,33,16,35,27,36,26,32,33,27,29,36,31,25,29,18,35,38,27,26,29,39,30,34,18,34,30,33,43,1e+08,30,31,32,27,28,31,26,27,33,27,26,35,28,31,27,34,31,28,39,32,35,40,26,30,27,19,38,32,43,29,24,37,27,31
31,36,28,33,29,30,28,27,39,25,37,34,36,36,24,26,32,36,28,33,31,29,35,36,33,39,31,26,30,44,30,29,45,36,45,37,31,31,30,38,38,46,38,31,28,40,44,33,27,30,42,38,42,41,41,39,38,36,28,43,31,32,33,39,40,37,36,38,47,41,38,40,36,36,45,36,38,34,41,47,30,43,43,39,34,38,44,28,33,27,40,41,41,29,35,42,34,31,35,41,40,33,30,27,28,44,32,32,42,34,36,31,29,30,23,34,40,34,35,35,28,49,36,42,24,34,28,27,40,37,35,46,27,39,29,33,38,31,25,30,44,30,37,40,43,39,42,29,35,40,43,32,38,32,32,46,43,31,33,27,23,48,34,26,37,30,1e+08,28,28,44,41,40,40,41,39,28,40,32,44,41,43,36,30,35,27,33,42,28,31,37,33,24,30,38,31,40,38,28,46,29
38,37,29,40,36,34,32,35,24,32,38,35,43,33,18,34,23,32,34,29,41,31,28,35,35,25,33,26,26,33,42,28,32,37,39,31,35,40,33,36,36,34,33,35,46,30,32,40,37,40,32,27,32,33,39,33,32,36,37,37,34,31,40,33,31,38,35,32,40,37,40,36,32,36,34,39,43,35,33,37,33,32,33,33,33,34,37,37,28,37,33,32,34,33,50,36,32,37,47,32,34,35,28,38,22,36,37,35,33,35,33,41,24,26,30,36,29,42,38,33,24,30,45,37,25,29,31,45,33,35,40,35,40,26,40,36,39,41,25,35,34,32,40,33,32,40,31,41,36,28,38,21,36,42,39,37,32,34,41,37,22,32,29,24,33,31,28,1e+08,26,36,34,34,31,35,34,28,35,34,32,33,33,42,43,34,36,42,37,37,41,42,36,24,37,29,34,35,34,37,32,32
28,24,24,29,26,26,27,24,27,27,26,26,26,26,23,24,26,23,29,24,30,24,32,26,31,27,26,25,28,31,30,33,29,30,27,24,28,32,25,35,29,34,35,28,25,35,26,26,23,32,28,33,31,29,32,31,33,32,26,34,26,30,27,32,30,26,25,28,36,27,27,32,33,28,29,31,32,22,26,30,24,34,25,31,33,32,31,32,28,23,31,32,31,29,31,33,29,29,31,35,35,32,24,21,29,32,25,29,30,25,35,31,26,24,20,29,31,28,27,34,22,28,29,33,27,31,31,26,28,32,31,30,26,28,27,28,30,24,23,29,30,26,26,30,31,30,36,24,27,28,33,23,28,22,31,28,32,28,26,24,23,31,23,25,34,32,28,26,1e+08,33,35,32,28,30,37,25,28,26,30,35,30,23,29,30,27,29,27,24,28,22,24,21,28,41,24,31,31,29,29,30
37,40,30,37,40,34,31,33,34,29,41,33,34,36,29,32,31,39,36,34,37,30,36,37,35,33,35,27,34,46,37,31,47,35,44,40,41,31,33,41,42,46,38,31,37,44,41,32,32,33,47,37,44,39,47,39,42,43,28,43,34,33,40,41,40,37,36,41,47,46,42,41,46,36,42,33,44,33,44,44,34,39,38,40,37,39,44,38,33,28,38,40,43,34,35,42,36,36,36,40,40,40,25,41,31,48,30,42,51,36,43,41,24,27,25,37,43,34,37,42,33,48,37,42,29,41,39,33,39,44,40,49,32,40,32,35,40,37,35,39,46,28,39,46,41,42,40,33,42,42,38,32,39,36,38,46,44,35,36,35,27,40,37,32,42,27,44,36,33,1e+08,41,37,43,43,44,34,39,32,42,46,44,40,34,47,35,36,37,34,35,45,32,30,32,39,34,42,37,34,50,32
29,33,30,35,33,35,32,27,36,30,33,34,36,38,28,29,29,35,33,33,34,29,29,33,32,37,36,31,24,38,34,32,49,35,38,37,34,33,34,42,46,39,47,30,32,37,36,39,33,31,38,34,41,41,31,41,37,41,30,39,34,26,36,43,35,33,34,40,46,34,34,39,49,35,36,34,33,31,36,42,30,40,33,32,33,46,41,42,31,27,39,46,37,35,35,44,33,32,38,39,41,36,29,29,33,40,33,32,47,29,37,37,26,26,26,30,36,34,30,40,30,43,34,39,34,35,30,32,42,41,32,36,33,39,33,33,36,32,29,32,38,28,38,38,34,37,42,28,39,49,43,35,31,33,36,42,39,29,32,34,22,36,34,32,32,28,41,34,35,41,1e+08,41,38,47,34,28,37,32,36,45,43,30,33,38,30,32,36,29,35,35,34,27,31,37,32,42,42,31,40,30
27,33,26,32,38,33,29,28,31,33,38,28,35,39,22,37,28,37,34,30,32,29,33,28,35,32,35,27,28,36,35,36,41,33,33,36,36,35,30,43,35,41,37,29,36,41,34,33,32,33,39,45,39,45,42,40,39,43,32,40,33,26,35,40,40,35,33,41,42,38,35,37,41,35,39,33,38,32,31,42,31,39,32,38,34,35,40,31,27,26,38,45,40,33,35,44,32,35,43,37,37,35,24,31,28,39,28,38,44,34,36,36,25,27,20,32,34,34,33,40,28,42,35,38,26,40,32,32,33,37,35,39,34,35,35,33,38,38,30,29,44,28,37,38,39,39,43,31,38,36,43,29,33,28,35,42,33,29,30,37,27,35,32,31,35,31,40,34,32,37,41,1e+08,34,39,35,31,35,36,37,40,38,28,31,37,32,33,36,30,35,38,38,25,32,38,32,40,35,31,42,34
31,35,35,31,35,32,33,25,37,35,45,35,38,47,36,35,22,31,29,38,38,31,43,35,29,36,37,27,26,42,31,27,41,38,45,51,41,35,31,32,38,39,36,28,35,35,56,41,37,38,40,37,43,46,45,33,33,41,29,45,34,29,42,38,42,43,43,46,47,47,44,43,35,37,34,40,42,56,54,46,31,35,43,41,35,37,45,32,30,36,36,40,36,44,37,40,34,32,36,36,42,32,21,40,37,46,32,42,45,27,41,33,26,26,24,33,37,39,47,39,32,47,37,38,24,38,28,31,34,39,41,45,32,36,30,31,35,47,41,34,40,25,52,41,36,47,32,28,49,37,34,40,36,32,35,48,40,28,35,27,28,37,32,39,32,26,40,31,28,43,38,34,1e+08,40,43,38,53,30,41,40,47,37,34,39,24,34,36,24,42,41,48,32,32,32,31,44,38,28,39,38
29,32,34,33,35,30,34,27,37,36,34,36,39,45,31,35,28,37,34,33,33,31,38,37,35,38,34,28,26,44,41,29,47,33,37,42,40,38,32,42,58,41,41,35,35,37,42,34,38,28,37,32,44,46,40,42,39,49,35,33,30,35,40,45,45,34,34,51,43,46,34,38,50,45,30,33,40,37,47,50,26,40,36,31,34,48,33,51,36,36,36,41,35,39,34,42,35,33,39,38,37,28,29,38,34,40,34,34,41,31,45,40,22,28,25,31,39,37,35,37,29,39,38,32,25,29,35,30,53,39,38,38,29,38,31,35,36,40,31,36,35,28,42,41,36,33,36,36,40,48,44,37,28,30,32,41,35,33,35,30,24,41,33,36,32,27,41,35,30,43,47,39,40,1e+08,38,39,41,37,39,39,46,38,35,40,32,33,42,33,35,38,35,34,35,36,28,46,49,34,41,37
27,41,31,34,34,36,29,28,32,27,43,36,35,38,33,31,32,33,39,27,30,25,38,35,36,33,30,28,37,42,41,30,38,35,42,36,42,33,30,33,36,41,37,32,36,35,40,37,36,33,43,45,36,36,46,39,36,37,28,43,31,37,36,36,34,34,36,39,38,44,35,42,35,33,42,48,43,34,35,44,32,35,40,39,36,36,34,34,40,33,36,38,31,33,38,38,32,35,43,39,40,35,26,38,28,42,29,39,43,30,39,36,30,27,22,31,48,40,39,38,32,37,38,34,20,38,42,30,36,39,51,42,34,30,26,33,40,37,31,31,38,25,44,41,35,38,37,32,37,36,31,30,34,29,29,39,36,34,39,31,22,37,33,37,43,33,39,34,37,44,34,35,43,38,1e+08,37,42,34,37,36,38,31,32,32,30,41,34,29,38,44,32,29,30,30,31,37,42,29,36,37
27,30,44,35,33,38,37,37,34,37,34,34,37,41,33,39,25,30,30,30,33,28,36,31,39,35,35,28,22,37,38,26,35,29,32,35,37,31,36,33,36,32,30,32,36,30,36,31,42,28,35,33,32,38,41,34,28,36,35,38,37,28,35,31,29,42,35,35,35,38,40,36,40,34,34,32,32,34,33,36,29,33,34,30,36,32,32,38,38,37,30,30,33,39,31,32,38,30,33,25,32,30,37,38,36,30,33,35,36,38,34,38,21,30,23,31,32,33,38,33,27,33,35,33,24,35,30,34,23,36,34,29,32,32,42,38,32,36,31,37,30,27,42,34,36,33,28,30,31,32,30,29,24,36,29,37,31,32,36,39,33,27,21,39,29,27,28,28,25,34,28,31,38,39,37,1e+08,40,35,32,31,41,28,36,30,37,34,36,35,33,30,40,31,38,27,29,31,37,37,31,40
31,40,32,30,35,31,35,28,39,36,40,35,35,43,33,39,26,30,33,34,35,26,41,35,28,40,34,27,28,45,37,28,42,36,40,46,42,38,31,31,48,40,39,30,34,36,51,34,48,35,39,33,34,43,43,34,40,48,28,45,30,32,36,40,44,48,36,49,48,49,48,45,38,39,42,41,45,53,47,42,24,36,34,39,37,34,46,39,29,33,34,41,34,43,41,41,31,35,33,34,41,34,27,43,34,43,29,43,46,29,39,34,25,25,23,31,38,41,45,40,34,40,44,41,24,32,31,36,30,39,44,39,27,41,31,36,34,45,38,34,42,27,52,46,35,41,30,25,46,39,36,38,31,31,36,41,37,28,35,31,27,36,27,40,32,26,40,35,28,39,37,35,53,41,42,40,1e+08,38,38,31,48,34,36,35,28,34,38,25,43,38,44,36,31,30,33,37,39,33,40,36
34,39,34,40,42,41,40,40,29,34,34,42,37,33,29,34,35,31,36,30,36,39,38,33,41,26,35,37,40,37,43,27,35,31,34,34,40,41,33,30,35,37,36,36,35,35,30,30,34,31,35,33,32,34,35,29,29,32,43,33,51,36,34,32,31,33,31,34,33,34,37,41,29,32,33,36,39,33,33,33,38,33,33,31,36,29,35,35,49,39,29,28,35,30,40,37,42,34,38,34,36,31,43,33,42,39,40,36,33,40,28,39,31,42,36,46,31,39,35,32,24,36,34,32,22,29,43,42,30,36,36,30,39,31,36,38,34,34,23,40,36,32,36,37,31,36,31,39,34,37,31,25,34,42,32,32,32,41,35,37,33,35,27,29,40,35,32,34,26,32,32,36,30,37,34,35,38,1e+08,29,33,36,34,40,35,39,40,39,40,37,29,30,25,37,28,37,32,31,42,33,43
30,31,32,31,34,28,31,29,36,29,37,31,37,42,24,33,25,41,31,34,32,26,37,35,34,37,29,23,30,42,36,34,45,33,38,43,34,37,27,36,42,46,32,32,38,43,44,32,36,36,47,36,44,41,44,34,36,40,36,49,35,28,39,41,34,41,38,41,49,40,39,40,37,39,38,40,35,35,40,45,35,40,36,42,34,40,47,34,27,34,35,42,45,38,33,44,40,36,39,43,43,40,27,33,27,42,33,37,43,30,36,33,25,27,21,33,47,31,38,37,31,37,33,42,27,41,28,35,33,41,36,48,32,35,31,34,33,38,35,37,47,30,39,38,41,39,35,35,39,36,37,37,33,32,30,44,38,29,32,30,24,45,33,29,35,28,44,32,30,42,36,37,41,39,37,32,38,29,1e+08,42,48,30,32,47,29,34,40,27,32,40,39,30,29,32,29,43,42,31,46,37
31,33,27,31,31,32,31,30,35,31,37,37,36,35,24,31,27,41,33,29,32,30,31,33,34,34,29,26,29,45,36,36,43,33,40,37,35,35,30,42,40,38,46,31,32,38,41,33,29,35,42,34,48,37,40,40,43,36,31,43,38,32,32,42,44,33,34,32,44,40,35,39,44,34,45,34,33,32,41,42,32,41,39,44,38,43,42,42,35,29,36,43,47,31,38,44,34,35,36,35,35,37,28,35,27,46,29,33,37,29,38,31,28,29,27,34,46,34,31,44,27,41,40,37,26,37,36,30,38,41,40,42,29,31,29,36,37,30,31,37,44,32,38,36,40,38,39,28,35,39,41,36,37,33,30,45,42,28,40,30,21,41,31,29,35,31,41,33,35,46,45,40,40,39,36,31,31,33,42,1e+08,44,33,34,38,29,34,38,29,33,38,31,23,33,39,33,40,45,29,41,36
31,33,36,29,37,30,32,27,41,38,36,32,38,46,32,37,28,36,34,31,34,29,38,36,33,41,36,29,29,48,33,31,47,37,35,42,38,34,27,42,54,46,47,31,39,34,49,42,42,32,44,31,45,52,47,49,42,54,31,46,37,27,39,49,43,41,41,51,59,44,39,39,50,43,36,43,38,40,46,57,32,38,35,42,35,45,49,43,31,40,38,45,41,44,39,49,32,34,36,33,49,34,28,43,33,44,33,33,49,32,43,32,25,26,24,28,42,40,41,41,30,48,37,42,25,36,34,33,41,39,41,45,34,40,29,29,32,39,29,36,49,31,42,40,45,42,40,34,45,46,48,37,35,37,33,49,38,26,40,31,28,45,28,38,35,27,43,33,30,44,43,38,47,46,38,41,48,36,48,44,1e+08,30,34,40,33,35,52,21,38,38,40,31,29,35,33,55,50,31,46,39
48,44,31,38,42,41,34,35,21,28,36,47,43,31,19,28,27,34,38,25,39,37,31,47,40,21,30,39,33,33,47,28,35,37,37,41,31,42,30,29,32,36,30,42,40,30,46,38,31,36,32,30,35,35,33,34,32,35,39,35,34,32,34,33,38,33,43,36,37,39,43,39,31,34,29,42,46,36,44,31,38,30,40,33,34,33,32,31,35,37,29,22,29,33,47,34,34,38,40,31,24,34,39,42,28,41,42,34,32,43,28,37,16,30,34,39,26,48,47,35,20,33,46,30,18,29,44,42,34,35,38,33,43,25,31,34,36,45,18,37,38,29,44,38,33,36,30,40,38,25,32,21,46,42,38,35,32,39,40,37,18,32,28,30,42,34,36,42,23,40,30,28,37,38,31,28,34,34,30,33,30,1e+08,39,34,37,41,34,37,48,33,37,20,36,30,37,35,30,35,37,34
32,32,31,38,42,38,38,38,24,36,30,36,41,29,28,30,26,36,32,21,46,29,30,36,38,24,38,33,27,32,41,26,40,36,34,36,33,42,37,25,33,31,34,38,41,31,35,43,38,35,34,26,34,37,34,30,30,38,35,35,35,30,38,31,36,35,32,35,35,37,44,37,33,32,30,36,38,38,35,34,36,31,31,33,37,33,36,35,35,41,26,28,32,34,38,34,31,35,40,28,35,33,32,40,33,35,34,34,33,40,30,39,26,27,22,37,32,38,36,29,22,36,36,32,24,33,38,40,30,30,36,31,36,33,39,32,36,41,24,46,36,31,37,30,33,37,31,40,36,28,33,19,38,41,35,33,32,31,39,37,29,32,24,34,34,31,30,43,29,34,33,31,34,35,32,36,36,40,32,34,34,39,1e+08,35,40,34,36,34,45,30,37,27,38,29,31,28,34,36,31,35
24,34,28,32,34,29,27,28,35,34,41,30,29,42,32,28,29,38,30,37,34,27,31,31,32,36,28,24,29,40,38,34,44,32,38,44,38,37,24,38,35,41,36,31,34,38,44,30,35,36,45,41,40,41,52,34,38,39,36,43,37,29,38,41,38,38,34,45,43,49,47,44,37,38,38,35,31,32,46,34,30,40,34,50,37,41,44,33,30,35,31,37,37,42,28,39,34,32,38,40,40,34,28,33,31,47,33,32,37,33,34,31,28,24,22,34,46,35,39,33,32,41,33,41,23,40,31,35,33,42,38,41,32,33,33,32,34,37,32,31,39,30,38,35,38,42,38,33,43,31,39,38,28,32,27,42,41,31,34,29,29,38,33,30,35,28,35,34,30,47,38,37,39,40,32,30,35,35,47,38,40,34,35,1e+08,31,31,36,30,32,40,40,30,29,32,29,38,35,31,45,35
37,34,36,49,40,47,42,43,24,40,29,31,37,28,28,28,30,32,37,23,42,35,33,41,46,27,33,42,31,28,34,25,31,33,26,32,38,35,36,31,34,29,31,33,38,27,30,30,37,30,32,32,34,32,36,28,29,38,43,33,38,31,34,26,29,32,33,33,26,29,31,26,35,44,28,29,35,29,28,32,42,28,28,27,30,35,31,38,41,33,24,30,28,32,33,34,38,43,36,27,25,28,36,36,37,32,35,37,35,43,24,37,22,37,36,35,29,36,28,26,18,30,34,30,23,30,40,41,34,28,33,30,43,27,34,36,30,32,18,46,27,34,31,27,33,34,30,41,30,26,37,18,37,50,31,29,26,41,29,50,27,31,26,37,43,39,27,36,27,35,30,32,24,32,30,37,28,39,29,29,33,37,40,31,1e+08,33,41,38,38,26,33,19,50,30,33,35,30,49,31,37
36,40,29,40,36,40,32,35,28,30,33,41,40,29,18,29,32,26,35,28,38,31,31,40,35,25,36,34,31,32,41,27,38,40,38,33,30,39,35,34,32,36,33,38,38,32,35,38,27,36,31,29,34,34,36,29,31,34,32,28,35,30,37,33,35,33,33,37,35,40,39,35,37,30,34,40,43,36,39,35,37,33,36,31,34,36,31,34,31,34,33,32,35,33,42,37,34,35,34,31,34,36,29,34,28,36,28,35,36,37,28,39,28,29,29,41,34,38,37,32,22,37,41,37,23,32,40,44,27,31,39,33,37,32,35,31,39,39,25,34,36,33,36,35,31,33,29,32,38,33,35,21,36,36,36,33,35,32,35,39,24,31,29,26,36,32,33,42,29,36,32,33,34,33,41,34,34,40,34,34,35,41,34,31,33,1e+08,32,37,33,35,35,19,33,26,33,36,26,30,32,29
35,35,32,36,35,36,39,39,31,37,45,37,36,35,32,32,32,40,33,27,32,39,33,43,47,38,29,40,29,38,47,28,40,30,40,32,39,39,30,35,36,39,35,36,43,35,37,37,40,29,39,34,38,43,40,35,38,48,42,38,35,31,35,39,33,41,37,47,40,38,42,40,34,37,42,35,38,39,40,47,34,34,31,34,34,31,38,32,36,37,33,39,39,38,36,42,34,41,34,36,41,35,41,39,31,38,39,32,36,38,30,36,21,30,29,37,42,39,34,33,23,36,37,31,21,33,33,41,49,35,41,42,37,31,31,35,32,44,24,41,35,37,35,30,40,34,33,41,35,34,43,27,42,39,34,37,30,38,37,34,19,41,31,35,37,35,42,37,27,37,36,36,36,42,34,36,38,39,40,38,52,34,36,36,41,32,1e+08,37,42,35,35,23,38,31,36,39,38,43,33,42
41,38,30,45,34,43,39,45,19,32,31,44,35,23,27,27,40,30,40,23,32,38,32,41,42,21,27,40,43,29,43,25,33,30,27,29,32,39,33,26,26,26,31,39,39,26,26,29,27,29,26,30,31,31,26,27,29,28,49,26,34,41,32,30,25,30,37,25,28,31,31,29,28,29,30,32,32,25,29,33,41,29,30,24,28,28,27,24,34,27,28,24,26,26,36,31,37,41,34,32,26,31,44,32,35,33,41,27,27,44,24,32,25,41,36,42,27,31,25,26,17,23,32,26,18,29,49,37,28,30,28,30,41,23,35,35,37,33,18,40,26,34,29,27,29,31,27,46,25,26,29,16,39,40,26,26,33,44,39,43,24,30,25,33,41,40,28,37,24,34,29,30,24,33,29,35,25,40,27,29,21,37,34,30,38,37,37,1e+08,34,29,28,21,46,28,41,27,28,39,26,34
34,39,33,35,38,35,37,31,25,33,36,38,47,31,28,32,24,32,32,27,43,35,35,37,36,29,36,31,25,33,41,23,38,41,37,38,44,37,34,30,33,33,33,38,41,25,34,41,36,36,35,31,35,36,40,33,30,38,32,37,35,27,40,33,36,34,41,39,37,38,42,41,33,36,33,42,42,43,42,34,31,33,41,34,33,30,35,34,31,39,25,28,31,38,41,39,34,33,41,30,28,31,27,47,33,34,31,39,30,33,33,36,22,28,26,34,33,44,50,33,22,30,38,32,22,32,38,43,31,35,42,32,41,33,29,32,39,50,26,39,36,32,45,37,29,35,29,38,38,30,32,25,42,32,41,38,27,38,39,35,25,32,27,32,40,26,31,41,28,35,35,35,42,35,38,33,43,37,32,33,38,48,45,32,38,33,42,34,1e+08,40,40,26,35,30,32,35,37,35,33,30
30,40,26,35,35,29,30,26,32,25,36,32,40,38,26,33,30,34,36,32,31,28,31,35,28,32,29,30,29,42,40,32,41,41,47,37,38,32,36,35,36,36,33,33,34,37,43,39,34,33,41,37,40,41,41,41,41,35,30,40,31,38,42,39,39,38,38,39,36,45,38,42,41,37,41,43,39,38,39,36,31,38,44,37,33,38,44,34,32,26,36,39,38,36,40,41,32,35,43,40,40,38,26,36,21,42,27,42,41,28,37,36,28,29,25,37,42,35,41,36,27,33,42,40,24,42,33,30,34,36,43,41,33,31,34,32,42,42,32,29,44,26,40,41,35,39,34,32,46,33,33,34,37,31,31,43,38,32,33,27,25,41,30,33,36,30,37,42,22,45,35,38,41,38,44,30,38,29,40,38,38,33,30,40,26,35,35,29,40,1e+08,35,27,29,34,35,41,32,25,42,39
29,30,43,34,43,29,32,29,31,36,35,29,38,40,31,39,22,33,30,36,37,27,39,34,37,41,38,27,23,36,37,26,39,34,31,47,40,38,34,34,42,33,29,35,38,33,44,37,53,32,34,33,36,42,40,36,34,38,34,38,30,21,32,32,35,41,38,44,40,46,46,39,38,41,34,36,41,44,48,40,36,31,35,39,31,37,41,38,30,40,32,36,33,53,32,37,37,34,37,27,33,32,29,49,30,41,35,37,39,28,36,34,20,25,22,34,31,37,42,33,30,35,39,38,23,38,28,36,29,32,38,36,34,39,35,32,32,41,40,33,36,26,49,37,30,38,28,32,41,29,37,36,28,34,34,42,34,26,30,35,31,30,30,38,29,27,33,36,24,32,34,38,48,35,32,40,44,30,39,31,40,37,37,40,33,35,35,28,40,35,1e+08,32,30,29,27,44,37,32,39,35
15,19,30,19,26,19,28,23,33,23,29,17,24,38,30,41,16,29,18,36,27,18,35,17,18,35,28,19,14,40,21,19,28,26,30,30,29,25,27,27,30,26,26,21,20,26,31,34,37,21,29,27,24,28,34,28,27,30,18,31,23,15,30,25,30,30,27,33,27,35,28,35,28,28,30,28,27,32,24,31,19,31,25,27,29,27,27,30,18,28,28,29,29,33,18,27,29,23,28,24,30,32,19,33,31,28,23,28,32,18,30,26,19,19,16,22,26,24,35,27,45,29,26,25,23,26,19,18,19,24,29,28,19,29,29,31,26,32,45,21,26,21,34,33,23,32,23,17,34,32,23,40,17,23,25,28,25,24,25,24,47,26,22,29,18,19,24,24,21,30,27,25,32,34,29,31,36,25,30,23,31,20,27,30,19,19,23,21,26,27,32,1e+08,21,23,18,30,34,28,29,27
35,35,32,49,38,43,42,42,19,37,27,37,34,30,29,28,35,28,38,24,37,40,37,41,41,29,37,36,34,28,37,23,27,35,30,27,34,39,38,30,31,31,34,37,36,29,33,30,35,28,33,28,36,35,34,29,26,37,41,32,38,36,35,29,29,37,30,34,33,29,31,30,33,39,30,31,33,29,35,35,42,28,32,36,35,34,32,33,37,35,24,32,29,30,37,34,36,41,37,33,26,33,40,38,35,33,36,32,26,46,26,37,22,37,33,46,30,38,26,28,17,30,30,30,21,29,40,37,32,33,31,30,43,26,38,40,30,32,19,49,29,34,31,27,30,30,25,40,31,28,33,18,42,45,31,28,29,44,35,52,28,36,31,33,46,38,30,37,28,32,31,32,32,35,30,38,31,37,29,33,29,36,38,29,50,33,38,46,35,29,30,21,1e+08,33,40,27,35,52,29,39
23,30,28,30,28,31,29,28,28,30,27,28,28,32,25,25,26,30,30,27,31,28,32,26,33,27,30,27,27,31,29,35,38,31,32,30,27,32,30,38,35,36,35,30,28,36,27,32,27,28,31,37,36,34,33,38,36,36,28,40,29,21,35,39,31,35,33,34,37,34,27,36,38,32,33,26,30,25,28,31,26,36,27,35,31,41,35,38,29,27,34,36,41,31,29,41,33,34,32,37,33,35,27,29,24,37,24,35,33,29,33,34,25,25,25,33,34,25,26,35,26,34,29,35,25,33,28,24,32,42,30,33,29,31,30,34,31,27,27,33,35,26,30,27,38,36,39,27,35,36,36,24,32,30,33,35,35,26,28,31,25,34,34,29,31,32,38,29,41,39,37,38,32,36,30,27,30,28,32,39,35,30,29,32,30,26,31,28,30,34,29,23,33,1e+08,27,32,38,32,31,35
43,42,29,41,29,44,29,37,16,32,31,43,40,26,26,24,39,30,41,18,29,44,30,43,39,23,25,40,37,26,35,24,30,32,34,29,33,36,36,29,29,29,32,34,34,29,31,30,30,31,34,27,30,29,29,31,29,34,39,28,34,40,32,24,30,23,33,27,27,30,29,31,36,34,32,40,36,29,31,29,37,30,31,34,25,28,34,28,32,27,26,28,25,26,35,32,32,39,30,38,29,29,37,33,26,31,35,30,28,35,24,32,26,38,35,36,32,38,33,29,19,26,33,30,23,28,40,36,35,31,35,33,35,24,25,27,37,33,18,38,32,35,33,32,27,29,30,38,30,28,29,22,44,38,29,31,27,44,37,35,15,30,29,36,47,43,31,34,24,34,32,32,31,28,31,29,33,37,29,33,33,37,31,29,33,33,36,41,32,35,27,18,40,27,1e+08,29,34,35,24,32
26,31,39,33,36,30,28,25,39,30,38,29,35,39,26,38,24,35,34,34,36,24,37,31,31,37,30,25,28,47,34,31,46,38,38,40,36,36,31,40,47,46,38,31,38,37,40,41,32,40,42,32,39,54,41,42,39,48,27,42,32,30,39,41,52,37,33,45,46,44,35,33,45,40,40,40,36,39,48,49,25,43,37,46,34,43,46,38,33,36,38,43,44,45,38,45,35,32,35,40,46,33,30,33,34,42,32,36,48,31,45,30,27,26,22,30,38,39,41,41,28,45,34,37,30,32,34,34,41,36,37,42,31,36,35,38,37,39,34,33,39,27,40,45,41,41,38,30,40,38,43,31,32,35,35,47,40,27,37,28,27,46,27,28,31,29,40,35,31,42,42,40,44,46,37,31,37,32,43,40,55,35,28,38,35,36,39,27,35,41,44,30,27,32,29,1e+08,36,33,47,35
25,28,33,34,32,31,35,26,38,32,33,31,39,40,31,35,27,34,32,35,31,28,34,32,31,39,31,25,25,40,33,30,45,34,33,41,34,29,29,42,48,38,46,30,32,36,39,35,43,27,40,33,44,43,44,46,40,43,36,41,32,28,37,44,36,36,37,44,42,43,46,38,54,38,30,37,39,35,37,42,32,35,33,34,35,47,38,48,27,31,33,40,37,40,33,36,36,32,41,40,36,34,30,40,31,41,30,36,40,30,39,35,23,26,24,28,38,33,36,38,31,39,36,38,24,37,30,33,38,43,36,41,34,36,27,30,36,35,35,37,40,29,41,35,37,38,37,30,38,42,38,39,36,31,31,37,34,27,34,33,28,37,38,35,30,24,38,34,31,37,42,35,38,49,42,37,39,31,42,45,50,30,34,35,30,26,38,28,37,32,37,34,35,38,34,36,1e+08,34,40,38
33,34,41,43,36,38,42,39,21,42,30,35,37,27,34,33,28,28,33,28,36,30,38,36,42,30,32,41,29,31,34,24,29,35,30,29,34,41,32,30,28,33,28,28,36,28,29,33,39,27,32,29,28,33,34,34,32,32,45,33,40,27,32,29,28,42,34,33,30,36,32,32,31,39,31,30,31,32,31,35,37,30,25,24,34,32,31,37,34,42,23,30,27,32,35,33,38,35,34,27,30,30,42,34,40,29,40,32,33,44,24,34,20,34,38,38,23,38,27,32,21,25,33,26,26,28,38,39,27,29,33,28,44,24,41,46,34,32,20,40,27,36,30,30,33,33,29,41,31,28,34,18,38,51,32,33,25,45,34,48,30,28,27,35,41,37,28,37,29,34,31,31,28,34,29,37,33,42,31,29,31,35,36,31,49,30,43,39,35,25,32,28,52,32,35,33,34,1e+08,32,43
27,35,31,28,30,28,28,29,39,26,49,31,39,47,29,36,26,41,30,40,30,22,41,29,30,43,30,25,28,52,33,31,46,33,39,45,32,36,29,46,39,46,40,31,35,38,44,28,31,32,48,39,38,45,47,39,39,44,30,43,32,23,36,42,49,38,39,51,49,40,41,39,40,38,43,36,41,36,46,41,29,39,37,44,35,37,47,32,33,29,40,41,39,37,34,43,36,33,37,41,42,39,29,36,26,48,31,35,52,33,38,32,29,25,21,39,44,35,40,43,32,45,38,40,27,37,33,32,38,44,40,47,31,39,30,32,35,40,38,30,41,31,44,44,39,42,37,27,39,40,41,40,33,33,33,48,41,30,35,33,29,41,37,30,31,27,46,32,29,50,40,42,39,41,36,31,40,33,46,41,46,37,31,45,31,32,33,26,33,42,39,29,29,31,24,47,40,32,1e+08,34
