1e+08,18.1847911966667,38.9648343544999,34.1287927462,34.7581963711333,27.9856547304667,46.2160648088333,15.7784261309,75.9647979624667,48.3327976869,56.9380119283901,31.1086307847,56.5095981982401,68.6397055111667,52.4500421546,50.3186598436,63.8931975309999,60.7245385395299,35.2410712103333,62.7997014679601,56.6882365245767,37.8813283013333,46.5631392173334,30.081415661,16.0107310405333,67.7726945971333,49.9227650499,36.280973394,49.5599353799999,64.6371964224167,43.7102459694466,58.1660986369667,46.4817175856666,35.7298870396666,44.7405803046,43.5320599677667,49.9530175205666,35.2437220778666,63.8599955442331,49.0076453898001,55.5033178238667,45.0892285286,41.7616596532667,53.086156342,33.7581984819332,43.6695646716666,38.1794113866,56.4575849956666,37.1963779108,47.3424214656666,45.1209451406,52.190868516,46.560504779967,48.5281681407067,44.9717289715666,44.0715383645333,55.0150419663067,48.7762812216667,25.0998414478,45.4308699428,24.6315473500666,41.081794205,37.7361890928666,42.3181427668,40.9937099058,46.3295238541333,38.8486523016999,47.5928626946667,45.0671660566666,42.9192684486666,39.2748682456667,41.9391083376666,49.4380896435667,54.7995630047332,46.4859521973667,42.4839908640566,38.9397295106666,54.4612180986666,41.0559561375667,49.4876961178667,33.1051440983333,44.6695575045866,39.6641786548666,46.8699932512,38.7917308468667,47.9701011519467,45.1515440035,56.9402190763666,29.8488780529,36.8757197516667,65.0660927601667,44.1588309981667,45.9591879136666,47.9918357239998,41.0661500366666,44.5335141043,37.7608560853666,27.2296039229999,45.6992491040333,52.7723488590332,47.5730418586667,42.1284794759334,28.5766524917667,33.3440985986667,45.890086554,34.0320361884667,25.5682820106667,32.6977958586666,36.1804036126667,27.0964276453334,42.579440701,48.3064800937667,77.9985868951566,26.4516209723333,29.2609107727334,27.6677972613333,37.6326365232,23.3166130446666,25.0634521203333,44.662997012,53.9225539562,41.3016045356667,27.118205112,38.6363057884,65.531439681,51.6280305750667,21.8435428584667,21.8203606586,48.5571197560001,35.8652903119334,30.6668961293334,37.6540699255666,29.0999429956667,48.9781513371666,38.4328852053333,31.2935771655,30.3185272153333,31.7683773983333,39.6786723662833,27.789647069,43.4638485896,37.3113745483333,33.40069378,32.4830010863333,46.3727828843334,41.6778765996667,47.5690771273334,23.5393813973333,38.7493264160667,49.8853559301666,46.5720768413333,68.4261230183999,30.8582986458,25.4159780936667,50.298662439,40.3744074914,40.46781458027,25.0023295646667,49.2424982193334,32.2414935288667,40.591129421,39.2046726363333,43.7823706286667,42.2657635469,29.5791554790666,28.2835585931333,41.8153252126667,22.2976436006667,60.9527811623334,43.5346689030333,46.9555257116667,46.2261673503666,37.1303580936667,45.6376730426,30.1912604560667,33.6212264939,35.6689889477667,26.8432972606334,42.31239650603,42.282598361,41.524881756,20.733761376,37.5893393076666,41.3902399297333,32.0591943703,21.2635676449367,39.6497625309,24.7898167544667,29.8655752886667,35.69202770683,34.2140576590667,42.4272927843,29.335814339,55.3386003016667,29.006575584,42.611219076,47.2681711886667,32.8675048081534,41.7636245763667,39.3215960271334
18.1847911966667,1e+08,52.9512311579,40.1187558523,38.7147570026667,34.372901446,50.0781412175999,26.1852569155666,77.5475596096667,51.3286304809,55.8995829459266,41.5803800493667,47.9323627770599,77.8976625024,55.7243034776,51.6394361288999,67.2499907044332,59.65051207909,39.7944790675,76.1435916532599,59.9673752518099,40.9844313726667,53.6456957904333,41.0591682789666,23.3969506689333,68.0083948338,52.8255172647,40.6980748663332,46.6435516149001,64.2436835446666,49.4586035595939,57.0526286704,53.3322401718667,38.7881642031,42.8660429713666,53.7222343228666,41.4334832095667,28.1624925537999,69.6105358374334,55.1127487072666,63.6857993848666,44.6962413820667,50.7533289776001,44.1143565168999,29.5869044186999,41.9546850830666,44.3871957912667,52.5195876969666,42.1897122224666,43.7876791668999,46.8529652272666,53.5203962221667,52.1544340762336,54.1562669804066,46.2321191485666,50.6412688691001,57.26819629404,57.2467761461666,30.8721212301333,46.9192982634667,27.1153705093999,41.8587299153333,38.5984722479667,49.4458588119001,51.2301317188,56.4727857861,43.4688257443666,60.4416581864666,53.9775919605667,47.1473020310667,50.0860351296666,42.9036462637667,55.1056824023667,63.1613226265333,47.0471756064666,42.9317730997,40.6795215831,48.2790779937667,52.4286238105668,57.7174600012666,32.0843206659999,49.3016137097067,40.5985393933,46.6642230848666,41.2276047925,54.72892822528,44.6653076961666,63.1833192276999,23.9393303102333,29.8286271621,66.4179195602,51.2989875521667,47.7538748784667,47.7116628463,45.3124363771999,52.561317166,49.0590559693,37.5429761173333,46.1576413230333,51.5842584604667,45.3484112502334,39.5005102202,34.8741815975666,32.9330878516333,47.6328908895334,37.3597587079333,28.5417604798333,33.7587410667,38.9356969635,26.8435413718667,47.7217804878,46.5727788070667,75.5423374052566,31.935696619,34.1324028725667,29.4263158476334,42.4831922774,24.7798608986333,27.4039374176,44.3398960082333,59.1117714851,43.2307028018667,29.6577684430333,41.5194599171,66.8346155977001,51.9288502396667,26.0361857789333,23.6064104384334,54.6554275942,39.2282022433333,34.6992978857,39.8262368906999,29.0644076596667,51.5689612965667,37.3842922347667,35.6052336885667,32.4303489353,28.1849506213667,50.5241776403833,31.9026749562666,46.9439519801,39.2637219375,36.1017255754333,35.5690012959,43.5026649076667,38.6122753349,49.6684181875667,26.6097074626,40.8658298233,49.7739250005667,45.1985470341001,69.9151506863333,34.2173018628333,24.6840002973333,45.7376491503,42.6555551457,41.1638241943366,26.7274038798,50.5970221376,30.4712157564667,44.8698725480334,45.8067414418667,47.1191131786001,44.5007027608,31.4464619273667,29.2399389451666,44.498766727,22.257724028,60.040170204,42.8596344123333,50.5918072018667,47.4826635193667,41.6347304765333,50.5245556698,29.6845094252,39.8724286006,33.5302380834,30.3194842960667,42.7209034774967,46.184125398,39.8243365166333,21.6201554820334,35.8378951729,47.8110463857001,37.6573414558667,24.7101526961367,42.2274508121334,29.3529756248,33.0301297538667,41.6848947973967,34.9602251673,47.1609263062,34.1116548707667,56.7679017518333,32.3709993958333,46.3214587551333,49.9714373847333,38.5614275171533,44.7971189472999,45.7126330337
38.9648343544999,52.9512311579,1e+08,32.5512726178999,46.8712934156999,39.1625991549999,37.3399634532,37.23394921156,67.6543688684033,44.7993743220999,53.89856456953,34.7647436695999,49.8369178349001,63.2173022499,30.6501658598,44.0290168802999,73.9295595776666,59.37649201975,39.4972738255999,57.7504902179033,40.2078620983799,46.3191601402333,44.9000241218666,29.1194080986,38.7160717767,51.1821723396,51.5856621523334,40.9864459383,78.7984215567999,64.9075069355834,38.44229891282,75.0432801507,49.0984729273,52.0933577536999,64.8689419950999,59.1917938511999,66.906340936,51.42502884486,60.8378533863,65.5703336421999,67.1263636178867,59.9769451878,64.24418394496,66.4394931331999,43.8789451612999,55.6177827548999,51.7027219867333,51.0233367625999,46.3589801565133,53.60436867305,54.7718311597333,60.0171709007666,61.639792216667,62.3407133130667,51.0259733292666,58.75162849425,48.97599162746,56.3826552812999,38.9283349262666,48.9390475924367,52.7599442732,45.3640498939332,52.0263322385167,56.3338073591,50.3960578124333,43.9792719951666,45.1290433348,54.9994515408667,50.7416536425666,46.3226329862,41.9956321782999,55.0418270382599,64.2444753043999,39.4771735175999,59.8677290562999,46.915741849,47.4705160737,64.3633367600668,46.0740007015666,55.6832926766998,50.5717079313999,56.9907553411801,53.8022692230667,66.6480619784333,48.1065042988999,63.90943775159,60.5805377947,64.1189810164999,52.0492576605,57.7123861592,65.8911386856,55.2602201902666,58.071134152,52.4345773891,41.3574858624,56.6515835117999,48.3480363074001,34.6755005682,39.7834960812,74.1655724556,48.8439769376,52.3222702721,30.5979423657333,39.5144565909,32.3108175149667,48.0932113269,30.4375059501667,37.5192377401,46.715750245,34.0373121226333,51.6701758483,48.9491931600334,103.780635217423,29.3880170607333,41.6068812645,28.7744512638,50.002438827,28.8319123139,38.2137643812,42.2915317269333,51.5879639439,52.0423012251,40.8606297057,52.9699168528,58.1111498562667,54.8309871157667,33.4869258472333,30.5555257893,47.220353131,45.0377048819,43.2396731649,50.0898624925999,30.4849648047333,49.8875008253,41.3307092013333,39.8862024305,45.2402149098333,37.9755454737,45.92817687355,28.9647225113333,49.2718892424,50.3255867945332,42.2481736192,45.0575703515,55.1269110597001,51.6712716909,58.6629144964667,29.3085218507667,43.6354274109,47.3436839958,52.969623206,54.8367851410333,39.1314759778667,30.0194546167,60.8874290660667,46.0851718953333,46.88048881187,36.4087608342333,63.3222717907668,31.4375755378333,36.6636128171666,50.8740834739,59.3199151043,29.945884792,32.6862792836333,34.5947007292,57.4729133161,37.70014282,68.1391174999,51.7488262098,53.3343426473,50.4488793562,42.3016463523,46.2348280932,40.0655157507,36.72054137575,38.7798606036,35.9881909917,52.59333945223,51.1077386938,49.4088922505,33.1871135398333,38.4509237502333,50.4008692211999,34.1468898640333,39.68343536237,49.8687622650999,29.7813543779,29.9646073801,45.80170622973,43.4958697045999,39.9267983002334,30.3502992048333,63.2278894388334,37.4810305598667,44.7131466595999,50.6854261665001,32.20308590088,44.6807553034,41.1373742607
34.1287927462,40.1187558523,32.5512726178999,1e+08,26.1789665049333,35.5761800702666,43.6490626963334,25.444964905,76.1306831473234,47.7801386352,59.96829921658,22.0041972332,50.0354367346,46.2022010719332,39.6771391906,46.5197574903666,64.3693010119999,64.86469526935,26.5412132652,45.1929987263666,47.2565111791332,42.5573657082,33.5844238783667,15.6853195372,27.575014946,66.7761390797667,55.3504112480666,32.3221173561,63.3352169452,61.1238939833834,36.5080661292867,59.4486638668667,37.8779995611,49.6031156357332,59.7337295489333,36.8539339491333,58.5077141279733,37.5247885627666,49.8033612315767,44.83592069143,43.7172554531001,50.1014430861,39.8746988701,56.4140171669998,46.6434047067,39.0717697812333,41.4240318153667,50.3228719099332,36.6430051104333,54.1768780008833,46.5578527785667,57.2050218767666,46.4901799784003,41.07670015674,45.0615588128666,34.056951327,54.0182077989066,26.7445737079,45.9452390574998,47.0968932302334,41.1985018548999,40.8141640552,47.5776980073165,39.5719848741,32.6425938925,28.1605244552,35.8238595902333,38.6108647043666,34.6804528936,35.5572623746333,28.3291105226666,49.1834304864334,37.1795309234,29.0391991900666,54.2448214109667,40.3424592582333,43.8507436579331,56.5179964512332,30.0460647128,27.1032670777667,49.4620622230999,47.8371298504199,47.3938723464333,58.0446628432999,51.5658472687999,40.37147167226,54.0154954322667,38.193428768,49.2834696521,53.5377508370999,62.8966038073999,35.7256773016334,48.8979412651333,52.2485420013001,38.2663757145333,31.5316965682667,42.8972633197333,27.3310841028,38.7965175360733,58.9071185852333,43.7615268096334,39.8616258953334,28.7125003097333,31.8702752745333,43.7370527119667,34.7256148123667,26.8114098547333,31.1528834765333,36.6724631390667,22.7783795493333,39.8553720287667,48.0729450864,83.0279027444233,25.8301176102,25.5296858143999,28.835106595,36.0543005382334,25.3533649550333,21.3479087134333,44.5591800641,44.1747043326,40.9459844935,26.5551157235333,42.0045720990334,61.6229790012666,58.4635811054667,24.5339666069333,26.2494217176666,41.2437413637,36.417973581,32.5681462285333,39.5770715774667,28.8138953299667,42.8310309648667,44.7656991363333,26.4487561004667,30.6028643365,25.7700188900334,41.43489238975,23.6194744782667,39.0724997856667,47.9309193356,26.4498877494,33.9785924002667,39.3737183348333,38.4048149499,39.3574162187,24.8220749658333,30.0879428940333,47.3070571416333,41.7799310512,48.0776698381,32.8619016636333,25.8055019923333,55.9137083394333,32.9117099846667,43.0700790448366,26.0860344960667,55.6708599812333,29.4800217445667,41.1199111658001,34.1103739114334,44.4963238998334,37.5019148067,27.1534165683,27.4194700056,38.3606755964334,27.1239796268667,55.3229614870333,35.9367413237,38.6284229693667,37.5831364656666,33.1568504066667,36.6949154247666,32.7273871789,31.6239297471,30.5751877678667,29.0901025564333,37.6760045927634,40.7222206841,38.6639948399667,23.1027106422667,41.2491361457667,36.0647185967,27.6627457518333,28.6952108890666,32.9130661026333,26.6952531770333,27.8732650007667,33.1449149650966,32.4005509369,39.6532426648,24.1210567335999,47.1762950052666,25.5632183368333,40.1571128744667,38.9628039696333,28.4330610000866,35.4674444700333,35.9652433096667
34.7581963711333,38.7147570026667,46.8712934156999,26.1789665049333,1e+08,39.7062567720333,49.7989723520999,37.4149067511333,59.9896623798699,55.5399429749999,54.7783318389159,31.8237098136666,34.0392194256333,30.5336250380999,46.959426519,41.517548489,78.5592619842334,54.6671805275299,38.8171334286666,32.79337269078,57.2012250917001,59.4708331077334,38.6273386564,33.1050614439999,37.4535454522667,54.7479878276,40.3316422529,45.0416888426666,66.3535701002333,56.1548404118499,41.1966309017459,57.3573405962999,38.2361078300334,51.3369814073,60.2400997157,43.61069194856,40.5385978386899,19.9752451334,62.43290241489,42.4178743042999,47.9627090453999,53.0538848054,40.5170090158999,49.0250804569,50.6951000241667,37.9658029438,47.2095354973599,43.5197701179,32.3567618854134,58.0545374754665,50.0343193708667,63.3092244971333,48.7785904959669,44.2612736497999,49.5758289890399,27.96229951125,48.11072320098,30.4789728402999,58.3110451922666,50.9513111264366,27.9014747884334,55.4711600248666,51.6465866154499,40.0089511968999,29.177803908,31.2316960090834,20.5622880695,43.5333876423333,36.5169665827,36.2735068356,31.1945199289,50.08913375946,35.0614764770999,34.5928038109999,58.9998781924333,49.9676600071801,50.9944605652998,44.5008339438999,29.1015336888,29.4601165161,47.6683340901999,45.1552585717999,52.7754376039999,57.3473584362667,55.9622881794998,36.1127060584719,55.0215392310999,35.2989139466999,42.4800326967667,43.9568670945001,55.7255454458,32.8316689212,45.7007555381999,35.7958099682,52.8813818924001,33.51090137046,29.878887172,33.4956528462,47.7910186463,68.5090986086799,37.7106465225,34.2140428518,36.1946405683999,27.7854679895,52.9606011614,29.4964288506,27.7612217426,27.9533345107,25.8414571843,30.3846282378,29.5092929776,44.8950474892,89.7607255658899,38.7019735983,42.6963941274999,32.7493502703,29.5493072958,24.7693508601,20.3816964958,39.7320771153,32.4532719019,36.9457398854,25.7047161299,31.4318110593,62.3751497785,50.1932789446,27.2258684233,28.4770168877,34.9858412383,32.7430320522,28.9092049401,33.1222998722,32.9524780635,36.5634226558,39.8421579035,29.7902580872,26.4577568365,24.8304008023,32.42967114945,30.5277755215,35.1655260283,54.9149998301,21.6848769687,29.9472434187,36.2984074534,37.0524346622001,40.9963612611,30.2404622706,27.134667938,39.4903705846,35.4381286261,37.4084087073,36.1298514139,33.208028267,50.0387409953,29.0189162398,35.0390114824699,36.0017176676,56.8028339281,28.5344563936,35.2000149069,35.4866210834,39.7455273156,41.3498527497,39.0793028319999,35.1975320715,31.4595471689,23.7304305808,52.2305050754,34.6220005985,35.9347911257,32.8152800153,29.289295781,29.9400286857,27.0141887266,26.9509074202,25.4604005798,30.3597993592,34.92219665823,37.7848543319,32.8308356295,25.4138535973,39.5685132127,37.0727630016,33.7969632758,21.31305662893,33.774607043,28.7323822046,29.3786405606,28.35165109503,24.5169399169,33.4372187091,34.5479220992,43.5657267809,34.7680170429,31.8061749579,33.0417729794,31.60693814892,30.5750041494,34.9945121262
27.9856547304667,34.372901446,39.1625991549999,35.5761800702666,39.7062567720333,1e+08,57.9368159179666,29.4809801186333,88.6764879164664,61.4719225549999,60.4538619622933,40.0080245747334,48.8163258553599,65.9502942940667,53.3900295966,61.1844538867,86.1761003241332,69.0363801963232,48.6117448895667,60.37108058956,64.3912053311666,58.2280283264666,63.7012922810333,33.0942312158667,31.3912672856,80.8390230728335,58.7559600801998,39.7941390705334,65.7551156145,71.8557339811166,53.1812273385801,68.1593804725332,62.944174441,46.1472290594,51.5056515354666,46.5438686568,53.8961121722999,42.741450139,81.8996776315665,59.3497595107999,55.6023473711999,60.2211368835665,55.9342105124,64.4701685448333,46.8484400621333,59.2593138696666,58.5405422768333,62.1601692646999,48.1072208198001,52.4483464117999,63.4607609667665,62.4854673287333,63.3159012599669,47.5406948534399,60.5927859562667,51.1591573261,52.8290315090599,48.8988473775001,44.7656931198666,60.1214936509667,23.4358861227999,59.7125609419333,49.6242985389998,61.0420795478001,52.5275374181999,44.2115883849666,45.2875382654666,50.6358400589999,59.4461864289998,58.6999483988667,52.3704304756665,57.2273822730666,49.7801956627,41.8919950065333,60.2927221537667,51.7855011013901,50.3129210604,60.5353876600665,52.7489553971,48.9852067152,39.4538267704998,59.5086339177999,52.4033455925999,62.9683698410332,49.5154327776665,54.2289591132799,58.2201184828666,50.3059114945,44.2014729482333,48.3162830226999,72.4768511708001,53.9201730424999,59.2785478261667,62.6649066268,47.3766570695,57.2492174916333,48.9792150919999,40.1065651321333,50.3014107141333,61.0858639109666,44.1647093814333,39.1089897713,36.0108947372667,29.7023489862333,35.5904978234333,36.6359635969666,25.2913513715333,28.7772885945,34.6962240195667,25.4278036259334,41.6936651471,53.5216624853,99.1550219897568,29.6774857638,27.5283040636,22.9274443198666,35.945088793,20.4486695752,29.6406372130667,44.6437656858333,48.3959445190001,39.2702868868,33.8269504055,40.5358852532667,62.4654576882667,55.7158810480666,22.2375627990333,28.3601227604,44.647207701,33.3597151454333,29.4907905269,44.9632509282,23.4208407142334,45.9728182100333,42.2252246364333,26.1398821302333,28.9803332635,21.6372752819334,47.4018935564166,22.5679633687667,40.9216101997334,54.4885395846,33.5270163522333,34.4899152197667,41.9573526690333,34.9531330327667,39.8474964314666,24.2141317710666,36.2502087359666,54.3091574604,41.0355987659333,57.4200937002001,29.6432855160333,23.7392007162333,59.3038413642,33.9170240540667,41.18179197337,23.380581205,66.9995074671001,25.1577491580666,46.3240849704333,37.1651271461,47.2488937908333,40.80072622,24.9221582392,27.5105009646334,42.6391677671666,27.8565064613667,56.0096611877333,34.7044250768,39.1832381114333,41.5065258119,31.9897493967333,39.1113195028,30.6733195567,32.7039521705,36.9630773716334,28.0711073952667,33.3617954326633,42.5944221407,37.8124109965,23.1983864054667,45.5612836972333,35.8534011945334,26.7148558618,27.3671009573367,35.7180683930333,29.0390786199666,28.1761999061,35.34081622643,32.3721374558667,48.2113373015,24.0987137429,51.9280068369,29.9629902616333,39.8016084657333,45.5216855451333,23.0200124085533,33.9782404119667,33.5649804315
46.2160648088333,50.0781412175999,37.3399634532,43.6490626963334,49.7989723520999,57.9368159179666,1e+08,52.0083543748733,66.0666032315099,42.7656208359999,47.5709645164599,51.0618141496666,43.1427332874665,73.9503026809999,34.3658849706,33.2939098658,73.6557561553334,47.14892968719,52.6896714142333,52.4120022251199,38.8109452088999,51.0407322181666,39.6571724546999,46.055270749,46.9459291540333,38.7491821983,64.4001908348999,59.9541470375,83.9443311789998,48.26004983295,36.1644519870319,65.2162233348999,55.2989773245001,42.8248485677999,59.3639757881,64.4431557986001,71.7070078298999,52.07169698692,36.78026886179,71.5566927562299,74.7661960007,63.2617759361999,65.8308085023198,59.3002409009999,34.7693045967666,52.0326397635,55.4531539610999,46.2584005933001,55.1028464863,61.0744030914332,54.0021098722999,58.4944678809,64.649673776467,70.1056571394999,48.9420185337999,62.6896813968,43.14857345506,61.1937087624999,39.6032654983666,49.4849597313,60.3394615950667,59.8089757349666,44.5184923210499,64.7457147527,62.6546795483999,56.28643446355,52.1854970864,66.1605859365,56.817520487,50.0532006263,49.1735999003999,52.1445371931,65.8000595817999,49.1787150141999,58.1918796084999,43.31270329878,43.23270992,56.8966272899999,54.3708444631001,62.9364074787,44.2985967065,60.4351233909799,48.7604045665,63.9092718623,45.2352678845,68.71980364778,58.291732495,67.9737644001999,51.1479783633667,49.3538584655,58.9959092916,59.9296374985999,60.3896923834999,55.5016340482,42.6992414949001,57.4832881627,46.8627105888999,45.0260452224999,46.11441920836,61.6808150301999,49.2039594535,54.7358804311,34.4215875404333,36.172778302,34.1274505516667,50.7013847617999,38.8445893858333,40.263739352,43.4122360175,44.2051549955,51.6298817625,42.9616025091,76.9254322396567,49.4391783531667,62.2077838318,39.8780526235,47.8656934087,30.16138389,29.5900506505,41.9185843076667,57.5238195296999,46.910689761,41.046543587,54.0017600489001,62.5744479853334,48.1959224034,41.4835585728,39.966114952,55.643591975,52.4976916039,46.7825476060001,46.3119702924,42.3316081245,50.502723898,37.2963748288333,46.043131062,42.1413788151667,36.212018142,46.5047406374499,40.832117673,50.1720275876,51.383477693,38.786742306,45.900672624,50.6750709205,45.7967298835,60.4392908094999,41.9528009723333,47.2547921749,43.1782733673334,52.153171709,61.2682182528999,50.8389814423666,42.5127879175,51.7267496586667,51.6810954354666,45.84013639427,46.947518929,45.3161773546666,44.8394706909668,39.7319558036667,55.0723106295,58.6822280165001,29.4223158032333,42.6388836091,43.0053591144666,54.1670625525001,38.645854052,68.587061503,53.3209102607001,55.835499405,52.7057566318,41.7401359915,54.9449645516,41.6069416554,38.00136714605,39.2137432516,44.9198259064,54.5196147660301,54.9029967175,45.39235813,36.4413554281667,35.0736253201667,55.6200954868,47.0844001459666,44.5590031357,43.7632221064,42.1537320853,34.1117295235,46.8257856653299,43.4328632664,40.4427480934667,43.3140443044999,68.3193860706665,48.9548013166667,48.878098667,49.543676949,44.4383728961801,47.6815672737,50.9859587933
15.7784261309,26.1852569155666,37.23394921156,25.444964905,37.4149067511333,29.4809801186333,52.0083543748733,1e+08,88.1036233020698,52.0166079568,65.3501479384967,27.8656087498667,61.39723040014,62.0688717391401,47.7779500435999,54.02702381004,63.3479445044,68.88164911579,34.7329075231999,55.8813266413399,54.95662856546,37.4581777884666,52.7709795312066,23.4836310611999,15.3221976369,71.3895498357667,51.0121207141066,33.7996935312999,59.2370368640599,76.3296255926832,45.1038569940333,66.9538741850066,57.2789948092332,43.3241951009732,55.1211490029333,49.23746502874,52.8809415605333,41.7658903135333,62.5841864619666,60.3252172631632,63.5277727621733,57.4005036039732,55.0836807980333,58.2629259073266,40.0010523855733,61.0065143364334,50.9809151695733,61.9005830332734,38.1958102660333,57.7603870100267,59.5234084638333,63.3302724847734,61.4621884958003,53.5488485560133,55.9412836130733,57.1541963494,56.28536472748,58.1043049982333,32.4519352055999,56.7084955917732,24.6485967242333,42.2838589734332,49.1447527611732,59.1111234660333,51.1813628654333,44.3602611828334,46.5769775072334,54.46447550024,52.8134472454734,54.7806002932333,44.1711628869733,51.5577393799733,58.1470303936333,57.4981757549266,57.6548470225733,47.3939310789533,47.1552131779332,64.9484854398733,48.4447172893333,59.7017161618333,45.32016978964,52.8840457084333,50.7194969541733,61.3990694155066,48.0535323966399,58.8718482042134,57.3114094984732,64.823058051,37.6274347997999,44.7771744959734,78.01321687594,54.8292021788333,54.8714774857334,49.8819400860066,45.4612093486732,58.4561361310334,43.7957919841333,27.8746038422999,53.9489983290733,64.4432011955667,49.3622457132267,45.1981333969466,27.0118919670134,37.52595262658,39.90643143456,38.9977666548467,22.4149147625866,33.7139788557,43.0053870392867,25.2571913475066,47.43728587324,50.1772653470067,80.4769890069166,24.4941880875533,27.7947992081467,24.9674663026467,39.2548402751734,23.8265988217,29.47441815024,47.3357083092066,50.19964586254,50.9719113268466,31.2873281970467,45.1558211177533,68.1507256168867,59.4243089704866,21.97216668748,21.9429155667,48.24343420344,40.7697901873067,31.9133971252267,43.1809595510467,26.1778272391667,51.6405776846401,38.2398628903667,29.7386090934266,34.128333789,29.9731944078533,44.6928425361233,25.1118440570333,44.35855412316,39.3503735996067,31.9822625400667,39.80667378856,47.8126715703733,44.2774336892267,49.7468679390267,19.97442083244,39.7004251578067,49.7766559451133,51.1726201175533,60.3955967293,32.4149195395133,23.73017381302,53.6884572488334,45.0731956358666,46.2677164135234,22.3000607488933,54.979422104,30.8308046787067,40.0621497650334,39.0862778482,46.0850951761934,40.6991633994333,28.27062134682,27.71914601742,45.1076439374867,24.73323068422,66.2780342715867,44.5186538592867,49.6292603395067,49.07161368672,41.11608255102,49.6167866976666,32.3319947710866,37.32434537666,41.5357461419133,27.7963013860533,42.8700610776167,45.5397425865533,47.7450114851467,23.1907175215,40.2303305966534,42.0912760529,31.8778569332266,24.8329148696067,43.24950545582,23.0264501169,30.59793111332,37.2843308613367,35.9257211741933,36.0901444774734,28.7521154710933,58.4907866865867,29.9032009449733,48.4961773146467,51.8880732248267,31.0937778242867,45.46110288618,38.0727279948867
75.9647979624667,77.5475596096667,67.6543688684033,76.1306831473234,59.9896623798699,88.6764879164664,66.0666032315099,88.1036233020698,1e+08,93.5034657138899,33.54470124242,78.1353076204335,64.1956123121233,55.6880995300999,73.0081603283933,47.8940353958066,122.123045567743,30.720622508875,85.08335634581,39.36899433186,84.4520009014101,84.5208533247467,42.9243185480433,74.6759929837,81.4556583535335,28.74378380516,75.0239239681333,102.818048364527,116.5674475183,23.5135093272099,45.656680556054,66.48877767549,36.8340020591,47.9370912128799,38.9101171883032,43.81500449309,60.55910069772,62.71364572337,82.51706355791,54.87912091821,53.5553536777766,38.0334082017001,54.25119180843,102.1998542223,60.2371080444667,38.7596337685566,33.8327203436301,66.21990261751,52.62323006305,62.9804672029467,35.7016856627033,38.2090980973034,46.1862000175481,48.3874481087299,31.9838217170933,48.14801290144,45.74382415044,45.62714420119,93.5521302722701,34.37793896775,75.0591674657133,66.03325120747,42.9286267106,43.5668439933999,37.2823984029999,48.6106975475999,45.77158685111,45.2371311938001,38.2475384281999,31.47562971647,33.1182648396699,35.3603958861899,51.58941727091,59.5932953710766,34.6868724692366,40.50126857318,49.46910616938,59.56777262668,35.4437040742034,44.5090891564099,70.2322505159999,39.3648912852001,36.02065353088,40.3693163994367,51.3862006306,50.0510678362146,36.32275180027,50.2356543782566,87.7021564965234,63.0706295264901,53.3721925687199,44.1583320712767,40.9996532487,58.1014845103998,54.7148843862132,40.5102907303698,63.32206614528,55.2290261956799,48.0800698857399,39.5397623192998,39.89108130101,49.45035999389,78.6648488157702,44.55716957503,81.8113783189233,46.2202000692967,68.2865858269601,47.21446547371,39.0239560496766,75.87761350476,37.9880286393933,59.8976966617267,72.2441985069599,89.40708840417,106.550592179733,73.7532074500366,39.4109415653499,53.9136616736267,37.9511187745867,47.1513566092267,39.7626461326566,35.7541769892367,42.2808655767334,43.38608695089,59.7553607836866,52.9411692744767,68.38460896098,68.3422775750167,46.20800063855,43.0547209800033,46.9253802546133,41.3977717094433,78.2357578395799,46.4787946753334,66.5281660539501,59.7835139854667,42.0035892187001,44.1647082878766,32.67772194757,74.6462871680767,44.3735662145667,86.8964534789867,41.8103696486633,41.2907055921867,44.8667096132333,48.0763863775567,48.3482016528533,58.2957659814499,49.2664452005534,38.9950707642867,45.65934078176,44.35482596111,60.2887681723867,78.7948382996467,66.0106279465867,44.7379728402433,39.3117403986767,81.42785905958,74.7993005515668,72.76790604838,45.34898764594,41.9733356162334,38.8954398799067,57.9878335697235,79.4328812974699,73.0144036812133,41.0351576256834,54.2853997340166,52.8599237000367,48.5547482719066,46.8344184083799,44.8564080498167,40.3089322971666,44.85857939156,39.2366007617533,49.7383010037167,39.335817798,60.3998836202434,46.2803531637533,44.7874135416766,41.6228723015,59.66597928657,66.1212435362234,48.5591777212667,81.5377588303766,57.6144093922967,46.0115662584467,64.88064969445,50.6249632148567,43.8532448314933,46.2978201767733,40.41179972801,79.78989074688,54.6250703019567,64.86830494465,47.4927951647934,41.2309096441933,67.9847004931999,38.7978255636833,61.0540779573633
48.3327976869,51.3286304809,44.7993743220999,47.7801386352,55.5399429749999,61.4719225549999,42.7656208359999,52.0166079568,93.5034657138899,1e+08,68.1415655540599,43.8842926208999,57.8635367127999,73.662500354,33.18169019,62.9837379204333,57.8983120479999,67.10081354679,44.5073792061,73.4570838152333,43.6720456238,56.7765683129,50.3551139113666,47.5675837218,46.8548276507,69.5262278613667,56.0296757077333,49.1964505330001,61.2453195134,77.5125053029833,48.158923260572,70.6224936654667,65.6329134993666,50.2676953263,65.1408212696,72.1915978218999,66.2238668168999,55.353875632,46.0842226988899,81.65910558023,85.1662619335466,72.1256621200999,81.7320135009199,50.7968381259999,39.4145493425,65.0937333615,64.8303776838333,59.8840349212999,62.8886824770333,60.3171644982666,61.6432333249333,59.7899690266667,74.987437387167,77.5449959503067,59.4419825556666,78.24346346075,61.0654859997599,73.8135769644,39.2543140091,58.9380908228667,65.4802074656,50.0241877057,47.1285530001167,79.4354087074001,76.2102005544333,70.6802357259665,70.5806732634,74.2544144910667,69.6619300066667,58.7294790923,60.2547343839999,58.9230750209,86.1456391441999,54.5911303465333,59.5610490915,44.8848238173,46.7892014038999,54.8711037558667,64.1871800174666,72.2677453855999,45.9258655281,72.8515844038667,50.7926700909,68.2365270434333,49.1901453779,86.12676987586,64.5646879761,88.3684211832999,47.8081350112,52.7418790260999,72.8960218570666,75.4662111247666,68.7965072367,46.9694225122999,46.230620291,68.5844040391999,53.5849764999,46.9411730816,45.1177627842,67.2487669857,58.3355912561,53.9959856794,32.6774414756667,44.580350193,27.9935464253,55.5758436217,40.0013101024333,42.0722053452,50.8817203798,42.1200808843,62.3058109181,38.5148429418333,81.7050619019567,39.9611336187667,45.0479985700001,39.7862514112,56.7008958193,40.5459208912,41.6585941771,46.8402059785333,69.9930956414,57.0234789112,50.672158457,60.2768523867,65.053081747,52.6151577661667,38.3998858329667,38.3660541652999,57.8402087721,61.0732449265,50.5931657622,57.826958467,42.9278578201,55.7981799463,32.3345176422334,49.3969086616,49.9861591559667,43.3174197663,55.85546887815,44.751221746,56.6738622377001,48.6728076401001,44.979703277,55.8151068421,55.2922997140999,54.0316395901,65.3448542732,41.7280245356333,49.7964344555,44.1679058853667,58.6951033802,63.7781969874334,55.4146532032,39.0608188689,47.3310604194333,60.4504771297,57.94369444517,41.1764020284666,51.2382188416666,44.9737813660666,44.4810707601,62.4933173591001,63.7513450312,32.6762013463667,40.6381458659,38.3204947123666,60.5890971893,43.7916423562,77.4319954681,56.3715602418,61.9064153561,58.23212019,49.2651967712,59.4334411797,51.4271383046,48.29565248075,46.1755183892,46.8181684701,59.7590017920301,62.8597184872,57.083006999,39.3978501018666,30.5130365612,60.661850503,44.3627068865,43.6206741768,55.1139078193,37.1676085905333,38.3105384702,52.67735665413,52.9761836585,43.7833955072,45.3264441433,69.4247084787667,46.2779527632,56.096269098,61.4629806202,46.37540110492,53.0685661949,51.7431576979
56.9380119283901,55.8995829459266,53.89856456953,59.96829921658,54.7783318389159,60.4538619622933,47.5709645164599,65.3501479384967,33.54470124242,68.1415655540599,1e+08,58.62349816566,35.6765626120133,62.549187516748,71.9843603940859,45.6121519219433,78.4372444005361,17.031008179467,57.81059995766,46.821573959306,49.15760500107,71.7037169627299,49.65680682056,55.89600868806,61.55242312666,26.418065215396,74.54837902292,70.10316350539,78.07342174026,18.2661778332393,42.566431099084,44.0858915620199,41.7020855489827,31.3058648907399,32.0966690368399,51.211833673596,64.9651581609799,57.09477956328,58.67445245436,59.0471887986406,60.8426965785899,43.2465499972106,54.25360490184,64.77807165696,36.08544214636,37.013632020044,39.8576368537958,39.5780206876601,52.2965417581159,43.5332066688067,36.7472088504467,36.384912674346,53.068465683221,53.2570440596406,38.444956822226,50.3950131781439,19.9240816808859,44.7910382633799,56.1302761652933,36.237080818316,66.3921079062732,56.45179859373,35.2705369171567,43.6080394569106,39.6832442147198,46.645029424466,45.535093892116,51.8763249050466,44.8534654819506,39.4655652681159,43.2904839558159,39.812861051616,51.59086612398,48.8975655586493,34.859682400616,27.2523033130199,32.23660615224,59.2106200289899,41.194708833716,45.9571517369839,57.13947898168,43.7927055985107,30.8335967725826,40.5496738535573,39.0192367741599,56.8484346209799,39.788799715856,54.83832899266,56.9310310218634,56.8674373911599,32.21451911955,45.0636565344106,47.4764534212399,55.4523333927559,29.5165757262466,42.4278086470799,60.1169620677826,48.3648445296399,26.882242154,33.37974215368,42.78847210875,45.604322978162,53.5762781669701,38.073884595446,59.3339696523499,41.531043810038,48.9744364372801,36.691016002016,39.6378837353901,56.9296029384,43.576040142186,38.908575385246,66.152009567716,61.094210680402,87.3911777725602,45.22923922086,31.57509611875,33.3663042177001,30.827710110066,42.799902236536,40.099501160644,36.869991254868,42.467408119186,38.28572943607,56.092677137658,40.883453640356,51.21730438909,42.46550967813,38.3270259788521,39.1963216463079,32.47978741389,42.4070586266901,56.02899000183,42.76741754331,40.566466427246,51.2755671314259,42.394670691144,34.2086109367801,42.437404546306,55.25842264825,41.8069420194881,43.555145806336,36.3403520096061,42.31046209837,44.3742609651959,38.2019901343981,51.57341957465,48.8593242966161,39.517059989628,42.455224252806,44.1192315376819,43.474263964592,54.4313699320301,51.99681720347,47.351741265276,40.706139597304,39.2240848523,52.6243963868299,55.23910134552,54.05583276396,39.898235578074,44.5568150954899,44.5456180242141,47.184994965468,56.09547012243,54.05048519139,42.508692126232,42.04116752558,60.0592387862839,44.74011232822,48.949815875058,42.030619723994,35.193838922204,47.261651998,34.519154533622,45.043384359956,35.446415827268,46.547768580266,41.0310128932819,44.487730740298,40.417851522732,39.97145009547,42.12009117542,40.937078291554,60.4424655054599,44.192794488,44.464516560936,55.09234612709,34.57646046981,36.235418296252,37.872837406792,38.900433501248,60.67868658454,55.060273037982,55.66152045229,37.236953750516,47.701578383624,53.705983154146,33.8498266374099,50.27105070069
31.1086307847,41.5803800493667,34.7647436695999,22.0041972332,31.8237098136666,40.0080245747334,51.0618141496666,27.8656087498667,78.1353076204335,43.8842926208999,58.62349816566,1e+08,39.9639592556999,55.2461318962332,38.582112833,56.3329640904332,52.7639925439999,60.1570900147899,13.7151302003333,61.86533197223,53.7333191518,45.4586956393333,35.9441036145667,10.237291925,30.0486820515,68.21681978828,62.8575329119999,31.2719634923,55.4626748961,60.9415828335334,39.6607427678533,60.6019838210999,46.4199569129334,47.3154208169333,53.4701862453333,50.8712163270333,45.8834441392333,37.3411178095333,57.4422695735566,55.0844537844667,59.5174336521333,51.9084899389,46.5783226931667,55.5708435369999,44.3218943726333,43.6611801370333,44.7356469448667,52.6444918026333,49.9454426405,51.6230887630332,49.5417706274,56.2037197469,52.822296338867,52.7035286319733,49.0091453603667,43.8456712158666,52.4927910862734,46.8434982735333,43.6306624377999,51.4782963533999,41.4192462621333,33.5722798066667,45.6150512207333,46.8124182225,41.0825750491666,50.9663226283333,30.2968427813666,52.3174856579333,41.1426769049333,35.3585472685333,33.4463274389333,50.7703636712667,47.0526256060334,37.6627508138666,52.7828883136334,39.7830093140133,42.3669078719332,55.0447202625665,36.3888518864333,46.8371213822334,48.3451959461999,57.0065341148333,44.6414766160333,57.8728141661,53.1252882494333,50.8837765690134,55.8319136294,50.9601057297333,49.7326812941999,58.3356625135333,58.7647240618334,45.1165756075333,53.5172885658333,48.607026239,39.2069454327334,39.4506498351,47.1040297607332,22.3870972271999,41.3042101560067,56.0424591321666,44.2109785448333,41.5022012397,29.7628999194333,40.1299611220333,48.7043127156,35.8848616504666,27.2611992948333,32.2136570923333,39.8190865493666,26.9049812529667,45.0314405795333,47.2216741848,85.0135101627234,27.3607674643667,34.6890724135667,25.8522795043666,34.6864683800333,22.2807020628,26.8959555172,44.9768613904333,56.2572843954,43.6011799055667,31.8323283855667,38.5672737526333,70.5203315307,57.3361213953667,21.1749819902333,24.7768320220333,47.0109048584,36.7701213007667,33.9932574558666,43.8284190414333,28.2465585486667,52.5420566221666,45.9182037207334,31.6502010906667,36.4831979950333,29.3651630420667,49.9408307551166,24.6900892242666,39.6961076398667,45.1474802510667,31.4887817958,35.7954851678667,46.1726268893333,41.9301923674,45.9524863725,24.8424305402667,36.6245500908,49.9114512160333,43.7569145936666,58.7846956468,30.4978867231,27.3973253535667,54.722120672,39.6814636494667,41.89315523607,24.8920833189333,56.7245635279,27.5759744660333,38.8112097455333,35.8085603323,46.2689103628334,35.3712367082667,25.1009523293667,25.0421618516,40.7323750959,26.2736095433,56.7038721546,40.5719645425667,45.3358291362667,42.4228556695334,40.0693363649666,44.1060970670333,31.7861983505,37.9010308210833,36.9569429336,28.6914085011,43.3120361181634,43.8734655195333,46.5754449580667,23.0629003138334,39.1283932293333,39.3062060167667,28.8604494220333,27.5831626777,40.0412541792334,25.8562929912334,30.2486971425334,35.9987242718966,38.7809276947333,45.669458523,26.7849018457334,47.8997651450333,26.3940697375,41.4759061062667,44.9225704944,32.10840025232,44.5001245611,34.5945066532667
56.5095981982401,47.9323627770599,49.8369178349001,50.0354367346,34.0392194256333,48.8163258553599,43.1427332874665,61.39723040014,64.1956123121233,57.8635367127999,35.6765626120133,39.9639592556999,1e+08,57.3357054505333,51.9885237488999,39.9794077789733,65.8707809762001,43.37268525449,44.8482731916999,59.6531877189065,44.8655688336,70.4175975118,46.3619270021667,44.0401412283,59.4677798674933,54.9994806550398,55.4562512416,63.0717949531999,62.7333166051999,42.93100041349,44.1318735751859,51.6179184302066,61.3754381409066,42.5244569871733,50.1146330078332,65.10593564016,44.1265900969733,33.56173720082,48.5400299737566,67.58390944423,70.89235595466,65.5071560275667,64.4332868576267,41.2901611031999,39.4529759879734,49.1524841359732,63.7166356718399,28.3009494744399,56.3752701727066,40.56981634644,62.6685444519733,60.1638031032,68.3477273953335,64.8836121951999,58.4753915528733,55.4923235104734,27.6033290298666,54.3179596659065,61.3117923941067,59.5639858601732,49.69800550476,61.5013006558399,46.6551780256565,61.8094032329065,56.92028664674,59.6424414674233,35.6928530158333,68.22077390324,63.4823238809067,52.5957115801733,55.6411460716732,57.9275229023332,55.23576269964,42.3472654126,58.8238256252,37.30000282594,41.6801626504066,42.8136759288665,57.1389782021067,53.5408910803399,51.7692837021599,65.4166542654532,46.9746922614732,62.8082981179333,51.3691833433333,62.5584217802,61.7411808850333,54.52440349024,52.92633930826,44.5488049695333,43.83394880034,58.25562195004,65.1964544276332,43.6997346703,35.1826420457067,53.5064377941399,54.0385613728999,45.27439437644,37.1327195861666,54.1652074898333,38.9978144764266,35.06695049348,48.11114899962,30.4059411732534,55.6854090865599,37.4445814259066,40.8646419244267,29.4282542845467,38.9545750143866,40.8559783967467,39.5556153352534,34.3423658023466,62.0003135263234,54.27918680592,70.6122179172201,30.9190317512134,32.8205467687866,21.1009916232267,25.7155480573867,47.2644019173733,37.29553495192,36.6954694450534,35.0329641170667,37.8283054081467,63.4622228579999,38.87035119832,36.4128959707866,28.1898986452133,51.3395041460933,36.71146677928,28.67845216276,39.9782698483267,38.1527444180401,42.3095823843866,35.4805006874134,41.3622791664067,32.0457780177466,24.7217434892133,37.3946774903366,39.9262344517466,37.4560650374933,42.37867073624,30.2740704462267,34.8794625550934,42.1052392622533,35.05183854408,47.0833934977467,38.9563148353733,32.45302554996,49.0810258418867,43.8018028329067,51.84139631528,44.5912714579466,42.1705289437733,39.01315424908,35.5746148019866,35.3481933823767,44.54733279656,40.6342399152534,37.2150659665332,37.5512408236,42.1639422490533,46.0517056280666,50.2636065491399,41.31575786596,46.48326972992,38.6783664697466,28.8337093295867,56.93686258308,39.5109461199533,45.76508281272,38.9074390435133,33.7013804145467,50.2744748971866,29.0022661318267,40.5576555610966,30.9418663283267,34.07372863648,37.9703100277767,43.0199297752133,39.4201294314266,31.5258136110533,28.3565267900533,38.3767193514934,52.0004925043467,29.9240096891433,47.2672390256066,45.0132164054134,28.0673148372534,31.46077002671,36.977005924,43.6734774288734,47.02930179956,47.8742332884133,43.8962449563733,38.2745997174266,47.29158442488,49.1874290209266,36.3940100922867,42.02495409384
68.6397055111667,77.8976625024,63.2173022499,46.2022010719332,30.5336250380999,65.9502942940667,73.9503026809999,62.0688717391401,55.6880995300999,73.662500354,62.549187516748,55.2461318962332,57.3357054505333,1e+08,63.5795311659999,52.8131101839667,98.9120700006998,56.827529923955,67.4894663917667,30.6284389492867,75.7670392467999,84.5596079289333,46.2139692839333,54.3384851634999,68.4176579132334,58.6166821065999,47.5534629691,76.8521451930999,106.5223310244,56.05294921595,44.51744792222,82.0122788602,49.3139550477333,58.8915904759,56.6184873670333,27.8244471545,47.6897935723998,54.6514223732199,76.40176148889,61.7176000231999,41.79319712908,53.5756982623999,61.0079877068999,75.5907857579999,69.1028301657666,60.2697973102998,44.8688276514399,66.2813613063999,43.17401558542,70.4059548534666,55.7262635862333,60.5160047620999,58.1901064201141,35.5464476238999,50.2532701902334,57.9127332646499,61.65832867989,42.2214537190999,90.1693049437998,53.3378194851201,50.1281869184333,69.9690518649666,53.0584691528,60.0112297493,42.6850194099,36.0467077314999,37.41254395785,30.3347168083,42.1705315881,44.2092446840999,35.1858270751,48.5580660645601,57.2438741836998,37.6495728268333,53.8770897726999,51.4670119793801,56.2606703358999,42.5502709344,37.5414589496999,42.2442694110999,70.7572008724999,55.6869516281,48.5391360054333,55.8174982670665,62.5641415683999,58.7091282979179,53.3369209958,53.6544739179999,82.4878599615,56.4639964565,70.5414279333899,49.4402104473,55.350292585,29.8903999908,65.2207218045334,47.04788334376,46.8776848538332,55.4651250051,61.9067712643999,64.05535077564,38.2200050441999,34.3382068691999,58.5719127318,32.9795739888,66.8438175533,30.8998729103,47.2763308154,30.8614935689,31.0599058531,47.3487585680001,32.8767374438,54.9011761334999,82.8779472062001,58.8825602230001,64.5457331721002,53.7513498264999,34.5448569361001,43.8135604084,26.0318091378,41.296176516,31.7451385083,33.2086970194999,30.9042989153,37.9560160432,63.6363407679,58.079881801,40.5102710154001,48.416528068,34.5378056708,32.3706577438,35.3949032371,34.6648392386001,53.270939645,35.7877931659,58.1643496315999,39.0073301107999,32.3128762317,31.9090169116,21.4341268645,48.7777076694,35.3207408946,78.5531781311999,23.6068060526,32.9636025437999,32.8878597006,35.5031157066001,38.7452556972,37.2146823661,29.7601681069,41.0634966558,40.5170271133999,30.0609618437,45.1413323456,49.4213378851,59.7959651457,33.7640550193,35.13724095743,58.7993310665,67.1721822894,47.6943481266,38.6105122289999,29.4820352158,41.0097250965,48.9411505262001,61.2607364213999,54.1656960662,33.2866642255,43.2680510364,50.4071989999001,31.1810804833,40.574314398,33.9942647128,30.4511702341,30.1821083668,36.1926280757,35.2040242079,28.8537311645,39.7956575472,33.30803518487,35.7403437777,33.7458476958,39.9925810319,58.4787451129,34.299839767,50.9070946469001,38.2208677594,30.1838940299,38.8790269626,38.7757094988,32.5056207167,28.09147584,33.9868884905,57.036351556,44.6335261572,47.1985569644,35.9044465042,35.5998792362,44.68914905022,25.1005989044,40.0969464619999
52.4500421546,55.7243034776,30.6501658598,39.6771391906,46.959426519,53.3900295966,34.3658849706,47.7779500435999,73.0081603283933,33.18169019,71.9843603940859,38.582112833,51.9885237488999,63.5795311659999,1e+08,47.6945099342001,70.1650292029999,72.9871518081711,39.3700564,57.8971263716366,48.6132219911999,62.2154882269001,50.2254276199,39.674557656,51.2161582677,57.01202504788,57.1370884969,48.2286419034001,83.2121055144,76.5585499615833,52.6828395211399,79.7386717232001,63.1960509334667,66.666599273,77.1007240909666,70.0837220139999,60.64349591021,51.5102952234,51.5474513875999,81.34711591403,78.6120135156467,75.8032261408998,80.4966102101598,65.2223480549999,56.2083858411999,66.6178247526999,62.8815347241599,59.9710220539998,62.2081582387,69.0623792115,65.4428475343332,70.4687283652667,79.177206119467,79.0566204732366,63.6180641222666,68.4377682558,57.69565167424,70.6317940173999,57.1078307572999,64.8015744102368,58.8441114478998,57.4822065506,65.4968928886166,72.9612934624,67.7752722590333,59.4416791093667,50.7985636819999,68.9537872720666,66.4244173814666,60.0390683653999,58.4839112815,66.64090344766,73.0113725103,44.8192510417999,69.2695570507668,64.2015661852,61.6799841734,66.0900481119998,62.9492260095666,67.1766515717,58.1373964593999,70.1683489710867,66.354823915,80.3161436203,64.4528873978999,75.5085625546613,75.7613967762001,70.0561279861666,57.9559229414,61.0781108833999,72.4106805746298,65.8030699643667,71.3073470480666,51.0047147311,57.5285019097,70.1832350504,47.7539562421999,43.2933493901,63.0946273528,84.1580396009868,55.8067876579,51.7597250347,32.0140026493667,45.1991627071,30.9250547587,52.7571801126,38.1941325415,42.6997794955,49.7346961759,38.0178289287,59.7582736121,45.5735068291333,102.289981505923,42.5174259930334,44.6816406658001,39.6443903644,55.242760513,33.8577424845,42.7273792501,46.2559732804334,64.2282532671,55.8746129848,45.3669030187,59.0335113616,56.6034313994,58.0157848935,39.6128401514334,35.4883009464,54.5975873238,53.0580514731,49.3595480298,53.6555633804001,37.5497619206,54.8503609721,38.8850575282333,42.1974855284,55.7873499422333,41.6629265579,56.69233773105,37.5071005562,55.8682290056,63.0149943855333,47.3090312207,48.9387967194,58.0658934271,55.7323674837,67.3330328787,42.2488121446667,50.5441728875,48.7179491599334,60.3203020712,53.3015474259667,50.5966016746,38.075361736,59.0199155457333,51.3573700257334,52.1707728260699,38.9850369848333,63.8262015507667,40.5361996815333,43.6867308577,56.4913610455,62.806559993,25.8733087588,38.606337587,37.6069353412333,63.3889743362,40.9473667489,73.7490218165,56.1257756643,59.9099025526,53.7620614508,48.7105669095,50.2699095469,48.8727638095,42.33570138885,46.5510999129,42.3131167285,57.45361773483,55.3006218924,55.9586893208,40.1785146005333,36.0152694164,56.1031824796,38.6461699507,43.2258970898,47.610613196,39.3338097337,40.9368475427,51.78843729613,48.6464242631,45.3759973452,36.0902043231,65.6946515698333,43.6265227856333,53.7032322214001,54.5044352355,38.86606566528,56.6365623878,46.2225210456
50.3186598436,51.6394361288999,44.0290168802999,46.5197574903666,41.517548489,61.1844538867,33.2939098658,54.02702381004,47.8940353958066,62.9837379204333,45.6121519219433,56.3329640904332,39.9794077789733,52.8131101839667,47.6945099342001,1e+08,92.3150746246999,45.1082256085899,57.415364292,34.2095411095999,50.08076416512,60.6508543178667,33.7317276873667,45.7683534925999,48.8401544220998,43.6358409933667,36.3304760810334,61.6127462088666,102.8858575188,32.9841677411167,32.59314983794,80.3757566340331,44.2371562310666,50.5627596725333,62.5929343074332,53.8573697031667,55.06562258078,37.8973445986199,53.2886108474667,59.7574124440367,64.7941174714866,49.5819905713667,57.9698008657534,61.0907166138,43.4575103735,44.7069886535666,46.1980473562999,41.1812768481,44.3390910875798,64.5875083527333,49.8123701753667,55.2225089864666,54.2030618879004,56.1901944618966,47.3960343637666,53.9231209489833,41.5010253733933,50.9872891660667,56.2534212299,48.2332460003667,49.2675903790998,57.3119320732,46.4305925519667,51.7207461501666,50.7520910890667,49.6305681519333,37.0032099158666,57.8865535632666,49.2303878129666,37.6078494321666,43.1056102573666,49.9002815564666,56.7811037239666,50.7157441840666,55.5817775967999,46.2854749295901,50.2867970552999,43.9119900740666,45.2291248398666,49.4873673775665,51.3129101244001,49.9116471609266,53.5577766078999,58.6578391052665,45.5299024317667,58.9675284318246,52.2644616590666,58.3800582755667,47.9115510327333,35.1213326048,64.7222738479334,52.4986291836667,48.3982726973667,39.5328643884,51.1679356983,44.2708517329,40.2685142987999,43.2058855356,48.3618496666601,72.3836926091665,44.0020484151,43.5635053651,50.5172706165333,29.5799384256,54.5032001015333,45.9124760142333,44.4809608713667,37.7126930965333,36.4720503844667,41.5169970486334,38.3390812099333,49.0592720352667,82.8243275908234,55.4285188341001,78.9798408738998,40.6811258917667,45.1312359011666,31.0888972697,27.1534435581333,42.0414580454667,40.3565640521668,40.6516709550666,35.9330199773999,49.2693945942667,61.8017685209334,53.1556641399,43.2697188034666,35.5223083986,51.1253587098,47.2913071469333,40.9689419146,44.8441841158334,43.6543348187,40.5623985560666,43.0691160333666,42.4443220434999,39.8227083827666,30.9267319705,29.2172114887167,45.9215467768334,46.0896015614,59.9312692266,34.2908246305,36.1307241201667,49.5324290797333,43.9013039905333,52.4214706990333,48.4208205355666,45.0523394188333,47.6551294252,44.6990999096,49.5387008576,52.4668382751333,42.3192809731667,51.3776290111667,41.5606066608333,37.6716625603366,52.6438453108,57.2019311270667,42.2107266240667,32.3240534461333,51.3444720157,52.1065410535,43.2278023925,53.3402955392,54.0707125002334,51.3409200496667,35.7277182797334,60.1255662098333,48.4394939587667,48.8294349114,47.0884667914333,35.6978635427667,43.3872857497667,39.7807279534999,29.22590245625,31.4477949107,42.9743619760666,50.0024909689967,50.3469699247333,39.1980677559667,38.0988062356333,38.8991937313999,51.2444787112,55.8224399097333,39.46816363627,47.8669577163333,49.8346508153666,33.6527835445333,43.94636551703,34.3728675623667,31.5408219712001,48.970663392,62.7932934479,56.4047007966667,44.4676176193999,43.8166226318334,46.38315932028,39.1561026461,49.5477553324001
63.8931975309999,67.2499907044332,73.9295595776666,64.3693010119999,78.5592619842334,86.1761003241332,73.6557561553334,63.3479445044,122.123045567743,57.8983120479999,78.4372444005361,52.7639925439999,65.8707809762001,98.9120700006998,70.1650292029999,92.3150746246999,1e+08,72.2337565032099,44.0044009424332,96.9906519867902,63.4714860678,60.2573024476666,65.5591431449999,62.0204220919999,67.9669308779999,74.0813743931,91.0572428862333,43.4357394149999,21.0161334770666,97.7937675145334,52.7173049782534,59.7014833962999,78.7966267353334,67.5330000195334,65.0774173418334,97.7683945104333,69.4534185292334,61.5668135319133,49.8927063465566,90.1954929722333,102.652192830533,76.9018035296333,95.3763977663134,36.856582263,67.4857618425333,84.9501263474,80.6120082436,73.6087809735665,101.817254039333,61.9246839221,74.3792819652335,69.1066404563333,80.0311568738003,96.0750342653033,70.5999337786333,99.2497828447001,61.4152630066999,99.5957651905333,57.2048032176,70.9900350187334,75.8599922023331,51.603028774,70.1468147766333,88.0942509262334,95.1314092247,105.697267409867,87.7588149250332,99.5473815285333,84.1360660736333,76.2525282543334,83.3642819104333,71.1999392129333,106.257413823333,78.0450088416665,68.0712780104333,58.1271711403233,60.4797605445334,82.8810091383334,89.3243600113332,101.557056351733,56.2874709433333,84.9737403789331,65.8720933843334,73.4799747769333,66.9725530111333,98.0076843906132,73.9447301823333,112.5937476776,56.7845069598999,86.5080506013332,72.0639338967,94.5817034154334,83.1249036646333,71.16909138,54.0357840718332,86.3670124083,57.1870616073333,58.0516622829999,62.7573717293733,65.3738544801333,67.4671678274667,58.356764445,44.0502663109,70.7216573892,52.9173080844,55.5918918434,41.6154870803333,57.4417872364001,74.6894167336666,65.6760011856668,77.3333129642,47.0543794177667,44.53013842609,40.8482141727334,64.8224335287,50.4061446888666,55.2974462943333,44.7535489468,50.8937111368667,67.7048310154,71.4325323210001,69.2002738448667,47.4931567962,62.5097856331333,86.2058350246667,51.8077395832667,42.3089837391333,50.4555697620334,69.8047588368,57.0348022152667,50.9053427915333,56.3518680466999,58.1537574410667,75.2666929595666,53.8994158098666,56.8333321090999,47.9000620160667,56.7812833036667,76.76957054655,60.1753653805333,66.8323018636,21.9447269931334,60.5551482606666,62.718237129,60.811934907,56.5319069380667,62.2271083693334,40.5280670547334,64.0055121144667,55.0957754960333,73.8348544927333,67.2259658064667,59.0559893843333,55.2458180823333,47.1433579806666,71.2682780810667,66.5731456298033,47.8396579547333,35.1068087386,70.8020227338667,54.2860417995333,56.8207730784667,55.5904922588,62.4077534721,51.8816066782666,45.6985857649333,57.7197112930666,46.6327827742667,77.8166288562,60.7940510553666,79.9626977446666,64.0305867907,67.4643497540001,88.4675056049334,46.9398722424,81.89381410205,67.1578772432333,51.2613607063667,62.7057217908966,68.0921116584,75.3157765883333,50.393530123,43.5619907107333,59.6640426274,69.9843540679667,50.2685786618633,68.4259426763667,45.3669784728667,57.672132065,53.5788766763633,77.0256403309333,52.2769894402334,65.0249358179333,71.3624967174667,47.8881384583333,74.6293679268666,80.6247550743333,79.2494075448867,67.1658311127001,59.0067437567999
60.7245385395299,59.65051207909,59.37649201975,64.86469526935,54.6671805275299,69.0363801963232,47.14892968719,68.88164911579,30.720622508875,67.10081354679,17.031008179467,60.1570900147899,43.37268525449,56.827529923955,72.9871518081711,45.1082256085899,72.2337565032099,1e+08,57.916292370271,43.379134195905,58.4592926072,70.75989403645,46.5867540924967,58.90955085839,61.01512746669,24.338422201471,71.29086092738,73.2828823895299,83.1896556658898,19.150689664025,36.714938689044,44.20505456451,41.237047562375,32.43385909685,38.947053425315,48.1810622849149,63.2993385969749,57.1961098856499,62.38937030299,54.8674182516766,58.0966046771566,43.9766222266767,51.4879425222098,70.6618415872901,40.8547926804899,37.941252300456,42.998273819065,46.0242969082099,58.5923031448249,56.44109956765,40.176094924783,39.2299872934649,46.6809257601439,52.2587919722066,39.6463440202549,48.6925568890601,26.345152491951,49.3010910583098,54.0208809793966,39.270649355705,69.56132387545,56.30305880505,34.084244987444,41.3946974362767,42.9063008614749,51.3148361559249,46.8977459365149,48.0004133220973,44.004085392875,39.4973924933749,43.1537941075649,39.049233454685,50.9020423561099,52.9896068377883,35.223566578865,30.0635279295033,36.2516174933499,57.9491751835167,43.6024671679448,49.0154846542899,56.59077895605,46.4615284498766,30.5445791420967,41.771607913475,40.26670079589,53.9772708260253,41.1952081801751,55.1337071233766,59.56721154323,57.9765996036901,37.60224475182,44.0015039098767,45.6706797517766,49.641859080571,38.7817425127167,46.9891891098833,59.7597334868749,47.14674014555,35.20413095871,40.6168893182967,40.713459475756,46.185495835919,55.396309604159,39.217529906198,58.774773561442,43.902386741174,52.2857039444189,38.096081662695,38.31447217631,60.206882359019,40.053492197469,41.884945674759,71.4790385069491,66.4645690397839,92.6387876563901,51.09037243149,34.883936241012,40.79738905173,29.4452334362371,42.053713175121,42.111705036777,36.44378436789,42.476813216478,41.725967735259,54.650875150394,43.467747716008,53.1284659832499,46.80285954635,36.9970825971029,43.53131961851,39.0430307995171,43.4554200098649,59.6547361656499,40.248967502736,45.936840610282,53.3160803595881,37.024058577555,35.076910489339,39.729076821147,56.32382800621,42.394511097043,48.44430389125,36.311933429459,42.075404707973,45.0300554354601,40.107398833366,51.981801750821,51.1691396207301,41.122344347593,39.503207831079,41.4370870079811,45.662348258903,55.38421199681,57.125130210939,50.5110371009881,44.6556552900411,36.817714528245,56.0797289188499,58.59403734597,57.34883359485,42.806053450093,44.174094240941,48.851432857276,44.439017409191,58.26719001429,52.3507331670591,43.846994433019,46.297141039499,58.2552736961439,45.0823225922831,46.747888769105,44.551738722585,36.6323313226999,46.258919994319,38.400330448933,45.304560954739,37.6460205133329,47.9350404984661,42.664680861317,45.4175843237011,41.1238287135611,43.915736185979,46.256113065522,44.8138959980429,63.013103839946,46.282000055969,41.053119284079,51.8040692891299,36.158763161904,39.9747325571471,41.9360635306239,38.410324773246,64.61319327633,55.12504332005,56.2692346446499,38.3723081814499,42.886572175401,59.058136700679,37.286750473072,50.9947017068419
35.2410712103333,39.7944790675,39.4972738255999,26.5412132652,38.8171334286666,48.6117448895667,52.6896714142333,34.7329075231999,85.08335634581,44.5073792061,57.81059995766,13.7151302003333,44.8482731916999,67.4894663917667,39.3700564,57.415364292,44.0044009424332,57.916292370271,1e+08,66.65129391413,58.9183901783666,45.0981986276667,35.9959164924333,18.729490752,37.7940553915332,65.54625371418,61.9991018301,25.1825522141333,47.771725414,64.6242476571665,38.8770412151866,65.3420168735,48.1763239025,53.1861891315666,58.9965897946001,61.5539425884667,47.7561346245666,37.3715260854,60.8630903363232,58.2094761708,63.2487626803666,52.2370871429001,51.3554071230667,55.0261805619002,51.8434520948669,44.362198614,44.8774047771,57.7159354109667,61.6365579002999,55.0367427267,48.9185378813,57.2697081341,51.860494922867,59.8833443124667,50.5030069366001,52.7419006263666,56.6259186427399,53.1660094492666,45.2946289371333,52.5896394592999,48.0138209329667,27.0436243033333,52.1942255031666,45.9064795928,48.8165658510667,62.6948630575666,37.5907394477,61.6435510231666,48.9112795381667,39.0813230387667,45.0802221401667,52.4550447214999,53.6565989172667,44.0769783266333,53.2288536716999,44.89898665949,50.9587662153667,60.8593741717666,47.3445728956667,54.9249775534666,47.1339925193,59.0710760093001,47.8168196733667,58.2052118970999,57.5969489308667,58.3698020412466,56.5888215504,65.5014153688667,41.0281854107,62.9396761481666,59.7850629341,50.2035864627667,54.9434332541667,46.3900494662,46.7817372720667,42.9090679451666,45.7795209114,26.40505757,43.9500340491467,57.1805827440333,50.7304102885667,41.4592957231333,30.4485567568667,42.996428159,49.5792098344,39.4033520787333,33.5435164281,34.4356455388,44.0207749372334,32.1622974622,50.209970639,49.1095785091,82.8478343572567,28.220348205,35.8498232432,30.9875386439,40.4364689420666,27.0128468507667,30.7248468489,50.1050067175667,59.6140200150667,46.0821313565333,32.0577841059,40.7383119860666,69.3146577978334,57.635446323,24.3886713506667,29.4356730302,49.6216108277,40.0272119723,38.5948497623666,43.2815954218666,34.0611359342667,50.6351486295666,46.4693668188666,35.0288719035333,39.7730673805333,37.2263811167333,52.5811709299166,31.5998732103667,45.4636233876667,44.2196781937,37.9139989036667,40.2202407533,49.1150578845,45.9283295111667,52.0208212253,31.4771455562,41.1758500505334,51.6976313071334,48.0726340512667,59.5775977717001,32.8140953966333,28.542823948,54.8214285861666,44.1025331520333,43.77688788247,26.8836340811667,58.7646398850666,34.1423099308666,39.4972083973,41.1887543846,47.8414743219,35.1208872054667,27.7322216508333,29.0269273098,42.8901433624333,28.5638205320667,59.5700199882,46.2770396302666,50.6599108300333,46.6260520563334,43.7633463358,51.221476265,35.7224358929667,44.47994629045,37.7466231755333,32.1991960744,50.1427320152633,45.1402580723333,48.4646195683667,24.7402360228667,42.1701464316333,46.7681868119667,34.4931709168333,26.6465000727667,44.7115133949,28.1893230189,35.4075846898,37.9485475096633,44.0761767759666,47.2164433871,31.6339056911667,53.0321946272,25.7692596516333,47.1070392007333,50.8587401270334,37.6778728242534,52.0356996306,42.9536475672
62.7997014679601,76.1435916532599,57.7504902179033,45.1929987263666,32.79337269078,60.37108058956,52.4120022251199,55.8813266413399,39.36899433186,73.4570838152333,46.821573959306,61.86533197223,59.6531877189065,30.6284389492867,57.8971263716366,34.2095411095999,96.9906519867902,43.379134195905,66.65129391413,1e+08,69.1373470151099,73.8870351178999,38.93779296423,52.42455962409,55.0105389115601,38.8437092689967,49.4550383340733,66.9460913520666,114.96694607,38.7005423921234,39.510849172094,79.11966027855,39.2900508761701,52.1963381071601,53.01068305662,30.06805684727,60.30923865586,52.7793141156199,66.5555145375001,50.6052437816365,37.9009262784066,50.6438323150031,48.3502467160867,81.2645956703601,64.56573291896,50.79378535267,39.1247771701967,53.95828238187,35.5199163879366,68.6000216024333,43.2111898382866,47.8764099539201,48.7819360484336,37.4830604298666,41.1601354663,40.4205856045166,47.8183801640867,34.10085822785,72.3694020966599,43.2273288708333,47.1873303501666,73.0137552854998,48.90378913783,51.4658460483666,38.10017428955,24.0519496533033,44.5605412725,30.8434463379299,36.2032248912501,34.5297507336199,29.5911262706,45.59537895602,42.0623528297667,36.3718116589299,48.7561914908133,47.4863282906733,56.2589427074,51.2447934150835,30.55859348289,31.7360954897866,66.2354808644001,49.7336587773499,49.2045092007466,57.8020622901366,52.63489391,44.1817756536946,49.7524912484701,35.9432189482366,71.4606605153601,52.1014366923999,61.6844218019499,40.4756617081,47.69979557745,44.4696305694066,58.6420122344667,38.64123296251,37.9054041976366,49.0399392481,55.56920309476,63.66999059233,41.29760915374,43.3498271671233,57.7951068353001,32.1511151719,58.2403731193933,38.8798703497634,47.9489490849001,37.1859676483266,29.8860577542233,51.6689308174,35.61808850227,53.5737598774267,86.6432799516468,59.3451594579801,69.4368748898033,57.2618116540867,38.70186762888,45.2384682942667,27.4112924605833,42.5384927389,33.3719309382499,39.9218393701967,32.9278448870367,43.73387915377,59.8458674462467,55.0670595041866,48.4993224291,50.1122478543666,39.5500160735833,39.03815366185,39.5461768524899,40.2286449105199,58.16139884567,37.50746214025,51.38070998509,38.46409464885,32.5063577266267,32.7096519044467,27.9111802212167,52.7780060988733,41.1592668931235,71.17024046854,26.54641046074,36.2479610066566,37.73676102005,37.4306791095001,40.4399191521666,44.5467603339,38.88403126835,43.11003791559,42.4748228706199,32.37133715048,57.9380336775866,52.8266306116868,55.1971084596133,36.5528288287934,40.0867493198634,60.39335342572,70.0157251231333,51.7738701216999,39.2847331995266,38.87322823118,46.4848246075567,45.1874533994801,63.50124592608,53.0823083396334,38.8146736015467,41.4815502033668,57.5263536338101,39.80021644422,44.0322076445466,39.04834108144,31.72968547476,32.0411188137367,37.9444754860333,31.23467080049,31.68668786837,42.5717541640467,37.4186285736732,45.8551111067466,37.2105158504967,46.9124644658999,54.7629167308933,41.0078646163267,55.0378607887599,41.7860169039367,33.0992985943033,44.9912331287,39.2193399411566,36.4865616398966,29.96330763466,28.93516604875,53.5565863296,50.7710294597234,52.1211712446999,41.9352776947301,35.3296779364866,42.3133305696367,30.0710594151033,44.2315142188667
56.6882365245767,59.9673752518099,40.2078620983799,47.2565111791332,57.2012250917001,64.3912053311666,38.8109452088999,54.95662856546,84.4520009014101,43.6720456238,49.15760500107,53.7333191518,44.8655688336,75.7670392467999,48.6132219911999,50.08076416512,63.4714860678,58.4592926072,58.9183901783666,69.1373470151099,1e+08,61.9924160252,55.2948410478334,48.4373291518,51.5734164171999,66.5991967707099,61.5030106053566,62.77414768019,62.6114155642,64.8230705826601,42.9981831851199,55.7366183498099,56.9273488700099,49.72064324221,61.49935314541,65.1292813440099,77.4712405710901,57.5904548073699,24.921512548,74.5923169209401,74.0167023711099,66.8301308302098,73.11691559799,39.59967562619,45.10880863191,57.27081000591,59.5032208215099,33.18042168131,56.4518065577099,44.4789460937101,56.94763891331,62.65762526191,70.747417138977,67.1759918279399,54.69156533421,72.28476771396,43.4617653938499,61.8934346949099,45.4606625183,54.15890962761,67.0730601984099,64.4652406469099,48.8859617552932,69.3981550049098,62.06717427741,57.04566446676,63.9695812941998,64.10874542291,60.4473101479099,48.06470244711,50.1662998679099,57.0979489968099,72.17356374991,67.6104388938,61.0308398558099,44.79918161571,45.7290458524101,68.14350264619,52.64240107171,62.38765818761,54.69091585491,61.6589151909301,55.21541376281,64.07430699411,48.53927824071,75.23356699135,61.10119531091,79.8638401503101,61.3559717214234,61.89787540591,44.18819229841,64.24944814051,61.7301081537099,63.7693532539,42.4669751990099,60.4736014673101,59.0309205124899,54.1480480584099,36.96459356467,69.97001002771,61.24835689647,55.72580878588,41.26098581295,51.3841715038999,50.2668690685499,54.1675157584699,45.44435853874,48.53027032228,57.92099349948,50.59342587786,61.28622278747,32.84202322207,60.18236781703,48.92494671916,67.9651485061299,45.68298410686,54.12129590687,36.52887887409,37.62511437547,46.8735294415899,44.88383092729,59.99056547667,41.79396379266,60.7264256878699,62.0724699408801,43.879417362,48.15757098316,39.2601184559701,59.0381361872899,55.3414806835,45.54621846648,53.8381524223699,52.9514381854299,58.89755262417,33.0452169389,58.57050543103,48.08259640917,43.55859735747,46.82896178004,47.9613333082801,59.39181849988,36.65786324936,47.07896818048,56.08554699028,54.26935028247,52.42477160929,61.56037707967,45.57477430429,51.53838121287,49.57241253398,64.20326192429,56.50060082031,62.5507619728899,47.20367414366,39.1031318099099,60.2532579435799,60.2094100979601,52.54096944186,33.67100530809,52.84659721079,37.79374095712,57.4821015054701,53.6305427716701,49.2995922366401,59.6096175443701,52.29635112815,58.7159870604701,39.99001411167,79.85888605067,55.05821059218,67.07623429309,57.29537571417,53.1717705722801,66.04292645769,44.17140438388,56.17227414417,52.1867799145701,52.98020200958,56.70320387931,64.05714014871,61.53301946009,41.87307175578,31.73672290191,57.01406883247,54.4759489592801,48.77627453813,59.48143243918,48.3835521842801,43.83005700048,53.8359033181101,52.5133876174901,38.72614714203,52.80596420852,70.01864461997,55.9185744823499,59.2816539002799,68.4422666940901,59.1892553331,48.8487297451799,55.25051390166
37.8813283013333,40.9844313726667,46.3191601402333,42.5573657082,59.4708331077334,58.2280283264666,51.0407322181666,37.4581777884666,84.5208533247467,56.7765683129,71.7037169627299,45.4586956393333,70.4175975118,84.5596079289333,62.2154882269001,60.6508543178667,60.2573024476666,70.75989403645,45.0981986276667,73.8870351178999,61.9924160252,1e+08,53.2995227356999,41.059764093,38.4677138105333,64.0243595888,68.6543463558001,47.8217836033334,59.7906085166666,73.6152639282834,43.02391761462,60.1553272165665,56.3001461717332,55.5109499525333,58.26935792195,67.0796627738233,58.9823776933432,55.5979663635999,69.3129299329,50.49449045423,64.1594370915799,54.86389673,47.1095457689333,67.508334168,48.3230186282667,43.2569019729333,56.8859440694066,63.8001916103666,59.7665815796533,67.6247725295666,53.9796223669334,64.9427889345333,53.5705643059196,66.40672815154,55.86316237841,53.8028233265333,61.80473246264,57.8128852485333,30.9995919293,57.4352299817133,59.6442472363999,27.1883104129999,54.3605669565333,55.3604647245,59.3830996710666,64.9419890690999,54.2025099816833,65.8254198674332,60.1105246901999,53.0173526775333,54.8950157407333,54.3430120059732,54.0747292559334,68.7186915681999,54.2532935414333,54.17452771608,56.674026089,71.9350752603333,56.45841296505,57.8056091989133,52.457472933,52.8721754574199,54.6800402252,58.2611075649333,55.0179413376,52.4536365677986,56.2928451782333,60.9591900906999,45.4198593885666,57.468357001,74.9768079648334,53.9453505178333,52.9002147521999,57.7940108592,57.3343752479667,52.6799975922066,47.4341320665999,32.69706688,57.7673471707,49.5797598736199,52.9802908353333,49.0662443547334,28.8468246751,49.8307876266666,39.857833474,44.5696324838666,27.5601028513334,52.865583038,45.2475930516667,44.186713626,47.0426314413333,46.0087215657667,78.4777231139767,33.862501812,41.5191687313999,44.541781099,51.0813664008001,37.467689702,46.190256675,45.521712743,63.9736087834668,49.1192576676666,44.5491253146667,53.4308504029333,62.265356324,50.3154493167334,34.9846189968,44.6449470913,47.1288092133333,49.2895006049334,48.14000236,44.9574360487667,45.622123444,52.2230260835,40.2636309473333,40.1759920001667,45.100679163,48.700215863,55.5071502203834,45.183647648,49.9476392107333,44.400595238,53.182291331,48.549349145,51.6032921243333,50.6363255686667,48.1281719440001,25.3589624203333,55.8028118822667,49.0569102538333,48.8192907006666,68.9038982547333,31.7561905594667,39.581967844,50.1730930733333,53.0461063762667,49.4319460806634,36.122823076,49.8296934036667,47.1754408765334,47.1962153263334,49.4902280023333,49.264997757,39.6062325259,40.9407309124,37.0919980368001,53.4604287603334,42.649098973,48.4832738973333,50.8676553249666,46.0850162836667,46.0817056280333,52.6330190499999,51.7117861462667,45.0075585719333,50.2291507582334,48.2875446572333,38.7433665009667,50.2192236346366,45.51409329,48.9854036929333,37.050866357,39.8546354063333,53.3288184542667,44.9982640903,46.78468583627,43.2239192631,29.4554442681333,47.377529558,48.2213092235033,52.1326469839333,44.8516411096333,42.918293893,51.649225253,26.3512708196667,51.6768697743333,51.3825121353333,48.7321341771534,57.0752640643,48.5750388748666
46.5631392173334,53.6456957904333,44.9000241218666,33.5844238783667,38.6273386564,63.7012922810333,39.6571724546999,52.7709795312066,42.9243185480433,50.3551139113666,49.65680682056,35.9441036145667,46.3619270021667,46.2139692839333,50.2254276199,33.7317276873667,65.5591431449999,46.5867540924967,35.9959164924333,38.93779296423,55.2948410478334,53.2995227356999,1e+08,33.1680276795,48.6941602408667,45.7162664646333,53.7946879297665,59.3383734472666,76.0968321084,39.27410348515,34.1936349771199,65.4170471267666,39.0550863327001,38.0020772372,45.2457571897998,44.1976075318,49.5799376407398,42.0488930239199,44.2208107838099,46.07832777832,50.0573086722333,43.1308668212999,46.3047563799332,64.918122256,48.6568377876333,37.0625099301,37.4425664763001,57.1884758050999,50.04513577998,57.4189630228332,42.9071083193,43.5785528818999,41.4752104380004,47.1360889332999,41.7709316115,40.4881899259833,51.59896118366,43.7032415700332,57.0008461152,41.8545601586699,50.7079755225667,47.7621068176333,38.39916584,42.9666394222333,40.0803184945001,49.6445006586333,37.9948956338999,45.5231950878333,41.2358100426999,29.1559607963,36.1098819737999,44.1716550162599,44.0207576555333,34.7924560391998,44.8811760633666,30.5216196409233,39.3193618086999,46.3742534655,38.9252107691999,41.0628643645,50.19212711,45.12701018718,34.1710073716999,52.3627759332333,44.6530917,44.2686763702053,48.9484401857999,49.4452144611333,48.4380636302666,47.896993975,55.6275053274666,40.6841130454001,42.9958506923,40.1015826158666,40.0031275634334,34.8009901766333,34.5429512658667,28.8497001307,38.0580418682,45.43942193208,37.0368137459667,35.8382754673,36.8394253323,31.8389033470334,50.5780408178,31.5846495336666,35.8675136093,34.794926984,30.6322078919667,42.8469206427,34.7008130067333,51.9110247611666,65.4645550799567,42.0529079112,56.9272930391,40.5204488974333,35.6595536591333,32.8749854040333,25.5467738528,37.8462040063333,42.2236510128667,32.504867404,27.3703609637667,40.5251934883,60.361364025,50.3009003375667,34.7253891206,44.2918425507333,41.7527402521333,32.8434048213666,35.7338750815,31.8065379373667,51.5234382948999,43.9566058591667,46.4899414387001,31.6963538196667,33.8485129391,32.0610522048333,27.6826737127499,42.4173180492333,36.9177501368667,53.1989049766,29.9861591630333,32.0839127658333,35.4099988396,39.486320079,42.4389018754666,40.1898272143001,37.5986101761667,35.7795582258,41.2656176559666,44.7996848783,48.1898214028667,43.2202366683667,53.5986223351667,35.6898144248334,33.6558832241033,43.4686083068001,54.8396944657333,44.2623431263,38.8465692314333,31.8819087964333,36.6935817460666,38.2400916005667,45.7663153517,38.9688380321666,35.5736491698,35.1072429573667,51.4739318587333,38.6810213518667,42.5346794242,38.7464167247,28.5543608833333,39.4034139276,31.6877971458667,32.6226063609166,27.0171415275666,32.5558476222333,40.02524745753,36.1875092715666,34.733446459,35.0701808314,44.5633764284333,40.3333897432334,45.7177381500334,36.2603255409667,40.4042575513333,37.0422891828,34.846261968,34.95971158033,37.2051583302666,33.3614434446333,43.6077116502,43.2941173633333,35.0412691616,38.2765000164666,35.7570617746667,41.4829910976868,34.1901142685334,39.814790221
30.081415661,41.0591682789666,29.1194080986,15.6853195372,33.1050614439999,33.0942312158667,46.055270749,23.4836310611999,74.6759929837,47.5675837218,55.89600868806,10.237291925,44.0401412283,54.3384851634999,39.674557656,45.7683534925999,62.0204220919999,58.90955085839,18.729490752,52.42455962409,48.4373291518,41.059764093,33.1680276795,1e+08,25.5889843478,67.9300491570999,56.2077711540999,28.8239069764,65.6292298074999,58.4353697390501,34.62171145612,59.4820962511001,43.9396108468,46.2083413577999,52.8702968611999,45.7488133349,50.2420435779,40.1270596467,54.1393032298999,50.6352333541,54.814682361,51.1728164487999,45.5783774051,59.7464336196999,43.2082204888999,42.5701155333001,43.7583658254,47.7604496475,46.6722267311,52.3450680159,48.0125704616,58.3537256287999,49.853183439767,48.32309380684,46.9776896188998,41.480367157,47.64613961314,40.4526249923,42.5445119363,49.3168495405999,37.9729826514,35.530023653,46.2062886575998,44.2335506441,38.0995779325,44.6451018336,28.8376231747,47.2421801378,39.7679698748,35.3739066793999,31.7565028198,49.1054782177999,40.8414301593,37.4894588891999,52.0695426245,40.0440315189799,44.0535977507998,58.7066443421999,33.8117296175,40.5657230025,49.0860179074998,54.3102409451,45.2925055068,58.708752156,51.5250094287,47.21352165428,54.3216934663001,45.251304765,49.4353894619667,57.4260350938,58.9821420973,43.5353261248,53.6848702314,46.6667949082,38.3861826567,36.7517143193,46.8578048240999,19.865754278,40.1732241379401,53.4585573326999,42.5148276511,40.996182423,31.2065328914,35.7012081894999,42.5022843526001,36.5339064417,28.9134008684,33.444568632,40.0524172731999,26.490121515,43.6766063746,49.5699270565,89.3902133256901,28.3551791236,33.5986559615,25.0828844975,34.2328177096,21.4659306172,26.6070162229,43.3875745655,48.5219131133,43.0726242751,31.1257346915999,40.7518984695,66.9136477255,55.6472759019,24.2341752924,24.8556246049,45.0669348616,35.2995400469,30.5400621417,43.5236643688,28.1623304861,53.1414220788,43.57924315,28.545411138,35.6827951281,26.4455716329,41.80873962445,23.5833282176,39.632850697,47.2879819364001,29.6808075917,36.2928317757,44.1888933106,38.9667484362,43.5918960659,25.021121052,34.927225174,50.1338372904,43.9651219077,58.2591633923,30.9003593688,24.9376627009,55.8594549852999,38.413686307,41.5913711801699,24.9031295613,58.2180151975999,26.6137171333,37.5166008312,35.5902312141,44.4206719866,35.2748244946,24.8338684068,25.9993976948,41.2442352751,28.2946444827,57.1253727126,39.0710199034,45.7227296147,42.0180868537,38.1633251997,42.8179757251,31.5681453963,34.68644003805,38.2682731912,31.0673535845,40.66523269573,43.7617647253,44.4022999572,23.0121270354,40.2244918533,38.6512662821,27.7714016946,28.17995951557,37.2982247447999,28.2428347893,29.1712774427001,35.17217247753,34.2191487059,39.8022268952,24.7538075306,50.2615255041,27.8398722215,41.0596897917,44.6728509662,28.31392032482,42.3330969459,35.5711542131
16.0107310405333,23.3969506689333,38.7160717767,27.575014946,37.4535454522667,31.3912672856,46.9459291540333,15.3221976369,81.4556583535335,46.8548276507,61.55242312666,30.0486820515,59.4677798674933,68.4176579132334,51.2161582677,48.8401544220998,67.9669308779999,61.01512746669,37.7940553915332,55.0105389115601,51.5734164171999,38.4677138105333,48.6941602408667,25.5889843478,1e+08,68.8498534984667,49.7269460325001,33.5659494894666,57.4726290084,65.9171826745833,40.7721982693133,65.8996977480334,42.6366561913333,43.0847450089333,52.0582471322,44.0745667046333,55.5574748338332,43.4577428126,63.0569029305666,45.4779272151333,50.0886532934,46.7299862765333,43.0152699813333,55.967681196,36.1556945615333,48.7778080245333,44.8837136408667,58.2707194216333,32.7829778107333,55.6765577048999,47.7389289825333,53.3736483323333,46.9494792521003,46.7445772331733,45.7958286814333,48.4548534330334,51.8394387819399,44.3781573135333,24.36285957,46.0883750493333,25.8986687185333,40.5647740788666,45.0120733651333,47.6439825773333,42.7999069174667,40.3521622551666,49.0236356609,45.3260923871999,40.0554710103334,39.2689873145333,36.8482880199333,46.8282109109333,50.4875544225333,53.1645806604666,49.2992975117333,43.4584402233333,47.8207018832667,59.9160142955333,37.0987423956333,45.8022651011333,38.4111879465333,42.9830785944133,47.0482527388,56.5184157186332,42.9387397621333,48.90767071058,47.5914755210334,58.6727525072333,34.6341704331,39.9306436669333,69.6831770598333,42.5386671951,41.4165744947333,52.0698578267334,44.3005009449667,43.2596187635667,38.4728020334333,28.6329543481999,47.8343337496332,56.4394498903,47.7888750446,44.4247604882667,27.2430776198333,35.0354803443333,40.5771009921999,35.1292286171333,23.7873825736667,34.1126089797999,38.3533654570667,26.6895816923333,44.7310960698,46.1008095647,78.1613600210233,24.6123441917333,26.5723368205333,25.7997964996,35.9906559052667,25.4711415092666,29.1448195257334,44.5551638848667,52.4536582710001,48.9406703623333,31.0377948957334,40.4242050579334,66.0151071546001,55.1494651261333,23.5649250226,22.1157250964667,46.5523468806,38.1495741601333,32.394837074,39.4102971052334,26.7267158544667,45.6311753536333,38.1157909909333,28.1924919776333,29.744693806,32.5928809314667,45.18199374455,25.9497916946,42.9947195924667,39.5422508219334,31.1016106697333,38.9359940682,46.3660233651333,40.7454220746667,46.2700745087334,21.8654999924667,37.9576790596,48.1822232802333,44.4778428428667,66.1760183459334,33.6070262536,24.3649265766,50.1385915687333,43.6367231270667,44.0889080934033,24.5709226966667,53.1279980858001,29.7869697472,44.7114613884,39.6678397592667,41.4845295496,37.6239199394334,27.6157866500667,24.8579999687333,39.1469450057333,26.0379344302,61.8558803192,43.7111152329,46.5306280840667,44.6591378844333,39.3933721328,43.9007857502,31.1194139439333,34.0835675115,38.0377849128333,30.1836039455666,42.0766762457633,43.3748389010666,43.4300513507334,25.5686941762667,37.4585675845333,42.6040137764667,27.8855789255667,25.75636521887,37.0616055717666,24.9769861399334,31.8917336984,36.9308467530967,34.0006024349334,41.9421193256333,25.6450246025334,52.6935703881334,29.0448624262667,45.9594442170667,45.9314463741333,29.8740443126867,40.5093943221,36.7752163354666
67.7726945971333,68.0083948338,51.1821723396,66.7761390797667,54.7479878276,80.8390230728335,38.7491821983,71.3895498357667,28.74378380516,69.5262278613667,26.418065215396,68.21681978828,54.9994806550398,58.6166821065999,57.01202504788,43.6358409933667,74.0813743931,24.338422201471,65.54625371418,38.8437092689967,66.5991967707099,64.0243595888,45.7162664646333,67.9300491570999,68.8498534984667,1e+08,70.3848326872666,74.9464091247999,101.5054926281,24.20265943947,39.671400135394,55.9962828576,38.1465514066,39.0544153101,38.8467765277333,46.2022417417999,60.14479419739,60.253944709,60.2407314529,56.2136639601299,55.8552266371999,40.0230165569,51.4699269598999,86.7673998204666,51.5036216307334,39.393662567,33.7331264322999,47.4245218472999,48.3046171201667,56.6462136704,32.8395218572666,37.0662261184199,47.054586441234,50.49433108215,29.7070989954133,47.1434870819999,32.91228923257,46.7719914506199,57.3693680043333,30.9904263587933,69.1816266295334,61.6825346228,38.9214862435333,41.97852062502,40.3516924829132,47.2280154553666,49.0647509908999,47.82142484082,37.3620397185133,34.3802353175,36.9191157763,33.7792589891199,50.9788557736999,51.7430014904533,36.34249765888,37.4736439573767,38.9986552933001,51.0016762868,36.9687977007533,48.51200581736,60.3533425677999,42.9701586439999,31.4911320282,41.3738979136,45.6663903222,52.61834971928,37.3522685666001,53.0445526891,58.0133806653332,55.4588491111999,39.54369420732,43.9588216954199,44.1192311154998,52.0409916113999,44.1681842774333,43.96413871472,55.9854763266333,49.6282414032999,43.51912418966,41.88218024006,42.2174154361,50.93097584614,56.1676419836667,38.338235496,50.6861784602667,47.73266971116,52.6678144443666,40.1620949896467,37.2450764533,67.2283928138,40.63633708682,43.7071351117467,70.4150547793234,62.4678972620668,85.9291839616,58.2277140693334,38.49750943864,43.9962274423667,31.0259442343,37.8423334128667,44.11860858618,39.0527822647,40.45434613538,43.72456106258,57.5249854658334,44.52499098188,57.8459422796,61.4003813271333,43.5391869776267,44.67140102562,43.8213250714801,42.8148041224,67.0003270290333,41.65993402024,48.28564888798,54.4790538154,40.6934443792666,39.9941319621,36.67503363086,61.5165179961333,43.4358600822001,50.4938930543667,36.57252431538,41.23841813786,47.36710120302,41.5798561945199,53.6028352884799,53.2731383083001,43.40285107358,33.7684123176667,44.4832733314,40.3120399231467,61.5561022585667,60.7144772094334,50.1499653469333,45.3980019884467,38.28845891539,69.1303686477999,62.6321099775334,63.2203360906,42.0395875990333,46.9186526677999,47.05006447458,35.4590070899801,68.0397316183334,59.1751503496001,45.9476173874401,49.0554630510667,59.3860859395799,47.7083620095,47.9127540755,48.0029004688,38.55418816456,45.6320716835201,40.03456698682,42.12978992791,35.34380763988,51.8420668387,47.65199610881,47.24186898128,39.9726037675401,49.7378665990334,51.1532130372667,50.6005680627,67.7284036293,52.09862290637,40.7436562954201,56.5650400166,40.5312438558667,41.31520378517,41.76628968444,35.3558374173734,68.5851239547999,59.6169074888666,62.5408184738,42.1069796098,41.03289253396,55.1259638799466,38.80373422738,55.6263955539199
49.9227650499,52.8255172647,51.5856621523334,55.3504112480666,40.3316422529,58.7559600801998,64.4001908348999,51.0121207141066,75.0239239681333,56.0296757077333,74.54837902292,62.8575329119999,55.4562512416,47.5534629691,57.1370884969,36.3304760810334,91.0572428862333,71.29086092738,61.9991018301,49.4550383340733,61.5030106053566,68.6543463558001,53.7946879297665,56.2077711540999,49.7269460325001,70.3848326872666,1e+08,49.9629829597666,90.1416380694999,68.8532350336167,48.5746276178933,96.8198780615334,55.8510145496333,59.0031285667,64.7545507847666,50.8930000300665,34.281561837,34.4872436239,78.2841351223999,62.7015637275965,64.1779338474866,48.9849159536333,61.9782198152667,53.7990111504334,57.8845155199667,66.7442155216,47.7303040219667,58.3769786778999,36.3476134105133,59.0878169223999,55.3228262177333,59.5464147037666,51.7400784230336,50.1491049129665,51.5305621338666,65.6547484159166,73.2791806214001,65.4920162120667,62.5633360163999,51.1874509279366,41.9144688665333,67.0986020881,53.0888300531666,61.9931980451667,60.7436635164666,51.2133916437165,53.9049408929667,52.6477357156665,54.8808992724666,50.8697423104999,48.9533675385,50.95923997156,69.5157931107667,58.0961958395,60.0116734896666,62.93782380849,59.2804747117,21.7270581595666,53.6957775859333,63.3008791349667,47.9333869206999,52.3126232062266,62.3096592366333,57.3537894380667,51.0723244716998,68.6358762524366,51.1311757572001,76.9811038708665,46.7583980262667,26.6962337397,85.9716879025199,60.1323380144667,47.9032413301666,24.1899289713667,66.4111847249334,58.6220593466666,40.5276858017,54.9277545058,58.3652561952,82.8724852078801,46.9611051936001,44.6152391002,51.2592640378666,27.2706583575,55.2370958099667,49.1081906522667,50.1486542413333,32.9189854174333,41.0857241363,35.9901471437667,42.9972025112999,54.9134994714,81.3180383577901,44.5888638466,56.6891190885332,40.8299863534333,53.5016697276,39.9522258805667,28.0388249845334,43.1844468164666,40.2399866610333,46.8232653263333,38.2748245175,46.4701838745333,60.4824240402667,59.9122482131334,42.1695166063333,32.0278759481,54.5852620005334,50.4818037324667,37.5077502852,49.5991015671334,39.2177755569667,37.6337239545666,49.2108044618,46.6713699840334,45.2065654736667,33.7250496887001,28.2171833586833,45.1753883836333,49.6103040233334,65.1602855994334,34.3694116332,40.8460574169,46.2489322122,40.8406101491333,51.4988860430667,49.3913097445,38.1241971722001,48.8548234638,48.4050534251333,44.4656985522,52.5513459891,38.0528071594334,51.5618778422667,45.7456984425334,43.9647147821367,52.3616304691,66.2174757090333,40.0871865303667,28.5736143209667,54.3370320726334,57.5623995728,54.4848194728999,55.3886160276666,52.4477118668001,51.3886658420333,34.6944801607666,66.8612664439667,49.9505247767,53.8518110625666,44.6753014157,34.0869500192,46.4243446013,45.691037614,40.1456920850666,30.2731229352,41.3267365424,50.2854596913299,54.5007356779001,46.0144224563001,35.3745643050333,40.8625784074999,49.0236252018,47.4364107964667,33.9792081262967,52.6939416913,48.1961997471666,31.6449652349667,47.3640563614967,28.1037791212334,31.6236736847,46.6433625571667,57.5775096245,57.7053145139999,39.8306924854,48.9225070198001,44.8250075810533,42.9108579689333,48.4920023778667
36.280973394,40.6980748663332,40.9864459383,32.3221173561,45.0416888426666,39.7941390705334,59.9541470375,33.7996935312999,102.818048364527,49.1964505330001,70.10316350539,31.2719634923,63.0717949531999,76.8521451930999,48.2286419034001,61.6127462088666,43.4357394149999,73.2828823895299,25.1825522141333,66.9460913520666,62.77414768019,47.8217836033334,59.3383734472666,28.8239069764,33.5659494894666,74.9464091247999,49.9629829597666,1e+08,37.246909798,88.1952777369166,48.4348810661987,64.2623819599667,62.4407511604666,68.2370365389667,76.5505877011666,67.4372348550999,52.9051517785666,37.2080321660666,75.6179584964998,68.6858486294667,76.2639947139867,68.3431666486666,66.5375827062666,53.955506264,59.8529266099333,63.8464739576666,66.8825899986001,59.6941003998999,58.4841787074667,67.4669042942001,70.4796985841,77.9907898597332,68.7695287842337,66.5141560767667,68.3158262227666,62.3791294276167,56.95258026564,62.2102535506666,49.0867743368,67.7542194308333,33.6556590822666,37.4172060211333,70.0124210542667,66.9420205737667,61.7205698458667,55.8540500057333,54.1158480273666,65.9018122723334,60.7480863322667,59.9979342962666,54.5638121255667,70.0027669752666,65.3928019561666,54.8851391616,72.8742530660666,63.7670360666567,63.3882159276666,63.9072942933333,56.7476711313667,63.2775470243666,41.2647453,70.6618889121466,64.8814816586667,79.7892250918668,65.9247559083999,69.5478133213847,73.5631316461666,73.2682403597667,33.1079127025667,56.3752813959999,74.8243048364,63.2344072156666,66.4858744273667,54.1876850417999,58.4002379415666,61.1232213408667,41.6816617443667,34.274399153,60.3360450526401,75.6050897594666,57.5703264143333,52.6558255655999,22.6467094631,48.683292345,31.2250639166667,50.8405193948,20.563118213,39.10658323,50.4919104009999,31.2364802066667,58.150544811,49.6929720424333,82.99773476069,21.423373797,30.2319572477,27.604930786,46.1019742765333,26.533838537,38.459294062,51.0475255986666,57.1273074035334,59.9833220506667,38.0108291796667,50.7782145810667,72.940523287,56.7055130137333,24.5827944662,27.3827549667,48.361638987,45.2094819609333,39.7937589656667,50.3344757688999,30.3385685433334,57.2824152811667,40.5769980486667,34.7935679828334,39.4871069566667,38.919310587,53.2713786372833,30.0838260596666,51.3736967186,41.3522638946667,42.874297441,49.46321856,57.303081849,48.5743027243334,52.4692198116667,22.0114693896667,50.4106236254,47.9254584051667,55.7661395406667,59.6132942157334,32.1430815398,24.678795825,55.1455979526667,51.7134756137333,58.0853398083367,24.6647025536666,57.8590503110001,33.3505121578667,47.3514620563333,50.8409156363333,51.340069546,37.7545181489,27.7628046297333,25.9939540421333,48.2376671193333,30.633269363,74.267366682,52.0270987740333,55.9485389513333,52.3992598657,50.1775123119999,53.0342311106,38.8238532983999,44.6758976235667,47.7145294170999,33.3553724038667,54.0331868953633,55.4547904843333,59.7958120483334,29.5446513026667,41.5929152316667,53.8464202234,30.0143885303667,34.97477464773,47.4390671652333,21.2592776452,35.223821172,40.5544681871633,45.0632661190667,48.0132940759667,28.0407414506667,64.201232273,26.0874915073333,54.238556951,65.145802982,33.7389129804867,50.5493020677,39.7404143934667
49.5599353799999,46.6435516149001,78.7984215567999,63.3352169452,66.3535701002333,65.7551156145,83.9443311789998,59.2370368640599,116.5674475183,61.2453195134,78.07342174026,55.4626748961,62.7333166051999,106.5223310244,83.2121055144,102.8858575188,21.0161334770666,83.1896556658898,47.771725414,114.96694607,62.6114155642,59.7906085166666,76.0968321084,65.6292298074999,57.4726290084,101.5054926281,90.1416380694999,37.246909798,1e+08,93.4236622631,59.1822636093792,52.8050558142666,69.8472877095333,64.952299131,62.6405094578333,91.1485131105001,63.6499947968332,46.2866488189132,63.59734582189,77.7404950876333,89.4037148428,69.8738725210334,80.1596752665532,36.8767918074,64.8760052079999,67.4034987617333,74.111259653,65.3339529626999,89.1293162263999,50.6507455274,64.9965987488,68.5787033834,74.3202303988004,86.7132988391299,66.0882783686999,83.3697306862334,62.70323032254,85.0990400718333,51.3820832548999,65.1055320261,57.8942241548333,54.8785036877666,66.8114087447,71.1522139336334,78.9041149262334,91.9958008308501,77.8093132010331,90.4795235543999,76.6075342297334,69.9158191496,81.4612908084,67.1510380556333,90.0519206889333,82.1499523875999,65.3069611080332,60.7607276674434,61.9815478353999,78.2536198904,79.5046557759333,85.4738630851999,47.4755696584,70.3471285931733,66.0969670066333,67.5349846973333,63.5906790754,81.6716539357213,67.1398614107333,98.6667217905335,37.2903534841,77.102419683,59.7594303992999,79.7738005100999,68.9368819632333,84.1887258334001,55.6891573597333,77.4086885446333,56.0024488229333,59.3567934378001,57.90944961756,66.3690803355333,68.4279461902666,55.6634395493334,40.4560909014333,62.7167997224,54.3218990237333,55.7510034037334,33.019057203,53.6041214888,63.393514729,55.9372692629334,73.2938731266,40.2558451599667,50.5097621036234,39.4154284630667,53.9555432975,46.1634183636,50.0295719814,36.879617211,45.2789541676,64.5169338325333,67.5595948291999,65.3777617861333,42.7566954121333,56.2902300263333,81.1083958316,47.7450558055334,38.1666891798,41.1515373527,70.3233701262,48.5612663122666,46.0812906938,52.8595412193667,50.7140713041334,75.7350843364333,44.3195285072667,56.8803207223667,40.2582127306,48.7534384932,74.8743408406167,53.9180444101334,62.2372934228,24.0214122229334,55.3826302094001,57.6012309988,59.2674623018,56.9503350170666,59.2221439382666,36.4516452140666,60.5880847614,58.2167142155667,69.6965814943334,78.5045357449334,51.5826069792,47.5495864668,44.7392114405333,62.0944856758667,66.3569808170034,41.9326563845333,34.3592046573333,59.0502201135333,67.5072317202666,57.0885268904667,53.283349276,71.6724832536333,45.6698631512667,41.7089734894,53.5627205272667,37.0541301564,76.9805777759999,57.9652095455666,71.4264223164667,57.6390274643,61.5680578612,79.3133422530001,41.8183183370001,76.5974461659834,59.1865904535,48.9375068505667,60.3671927186966,64.0163836208667,68.6406630392667,41.7923000671334,44.3812836426,59.561855232,62.5775398210333,42.66814505553,63.0056083085666,39.1946750302666,50.1953232486001,50.1739392692966,70.6329217555334,69.7574269142334,58.7346610193334,69.0049411944,41.9379462950666,68.6067169804,76.3418159594001,70.0837253233532,58.8990329419,58.4275145136667
64.6371964224167,64.2436835446666,64.9075069355834,61.1238939833834,56.1548404118499,71.8557339811166,48.26004983295,76.3296255926832,23.5135093272099,77.5125053029833,18.2661778332393,60.9415828335334,42.93100041349,56.05294921595,76.5585499615833,32.9841677411167,97.7937675145334,19.150689664025,64.6242476571665,38.7005423921234,64.8230705826601,73.6152639282834,39.27410348515,58.4353697390501,65.9171826745833,24.20265943947,68.8532350336167,88.1952777369166,93.4236622631,1e+08,37.057941021144,57.6870274382499,33.5038942316666,33.04368696325,33.7750231249,45.45414389774,60.48714354563,56.0015087052499,64.4739847461,48.8978970423301,52.6721246606499,33.1125038240999,43.4046067415,82.1640576557499,45.4497944285166,28.03861921825,30.2756936285733,48.75307135445,54.3835962478699,48.5043330197167,28.9833334567999,28.1315684397,41.1879187235141,45.9030913679798,31.7810216844766,42.94728007765,36.8132855611333,41.0066402520499,66.9098420742168,30.21340902958,67.2244297272333,57.2819898043166,32.2170014304,33.0434855043999,34.2660667680499,47.6591172988499,46.7492383568,47.52309114325,32.9629408337999,30.0948579499666,38.2122587466499,33.7093411515599,45.07576777755,46.7627403963832,27.20698224425,24.6523502642766,34.84853404375,52.73702021845,34.8959459901001,41.7734186391499,54.4765143677499,38.0604443285999,28.04826818965,30.9182485248,36.8124033724,47.6202061604987,31.6479379585,50.4961298797167,70.4548653856834,58.1806681552501,38.51783264915,38.3458219959,36.36025713,57.4058723858499,34.6523317193833,33.03158409031,55.6263663337499,46.43163507525,31.1739364981099,32.21200413388,35.7709113378999,41.5501471589833,59.29086550535,41.0247704676999,67.3420625273333,40.4803061244833,55.64337321775,37.59652429555,31.65156370665,59.3597411485,32.6178280548833,47.3561318838167,64.18231610649,77.44603878185,97.1314285838002,56.6098297604167,30.8504661837666,39.1576089586667,28.5950265145167,41.9385337919667,37.8856563305834,29.5954472603,40.5753113104333,34.1516730135834,54.52870299765,45.3286053122166,51.4062581278,52.5850170484666,40.85095572455,40.0145927231833,36.3101483061833,37.9547582599333,61.70235934675,37.7480830204833,46.2064786311,49.8404322141501,32.9603714481,36.1916224596667,33.24837617535,57.3596859495834,36.07639625345,67.0420784575,33.3524998830833,35.6602974700499,39.8822916484666,36.2139546899833,44.3117781694833,54.10146005255,38.4240706178999,40.6568410321,37.6326678127333,43.67043628995,49.6766650752666,61.1371614163167,52.4745967083333,37.3459094684666,30.8439909924433,60.7827526965001,54.9990270540667,55.28087678805,34.55529470365,38.3286328708999,45.7675262528,50.34473668275,60.2661587986001,60.4351069920334,38.0557283017333,45.0168415903666,48.8984780157667,39.7301155802667,39.2876063702,41.5550508085667,30.3326227787,42.28779431475,36.2191560472667,41.7172558622,32.8302697621667,49.1670279600833,37.82668813912,40.95529501225,34.79519720475,44.028899191,48.7373856656333,42.39673220175,63.17353280175,45.06110238087,41.3610012801667,52.8730499778,38.7795645917667,36.73048213653,37.5633248358999,35.41736338515,63.0395171035,50.3260145989666,51.37724306825,33.4823071654666,36.68905751035,56.19327952843,33.1983903435167,52.1710022690666
43.7102459694466,49.4586035595939,38.44229891282,36.5080661292867,41.1966309017459,53.1812273385801,36.1644519870319,45.1038569940333,45.656680556054,48.158923260572,42.566431099084,39.6607427678533,44.1318735751859,44.51744792222,52.6828395211399,32.59314983794,52.7173049782534,36.714938689044,38.8770412151866,39.510849172094,42.9981831851199,43.02391761462,34.1936349771199,34.62171145612,40.7721982693133,39.671400135394,48.5746276178933,48.4348810661987,59.1822636093792,37.057941021144,1e+08,57.6918198883939,35.3923262385672,35.752889900994,39.896054383694,43.904272446694,49.192018868986,38.944581172946,53.5917807842799,53.3919854508139,50.129794104194,37.5706982759939,48.960843840194,45.762975364646,34.831886924794,38.50693876786,32.402676086154,46.7570577777939,40.9130727242072,50.565704345194,30.6008170371606,36.0962679633273,43.034363725961,46.516867453994,25.415590463834,51.808168119094,39.53670245968,45.4267053485939,35.3102469228466,26.5830138236973,53.0969698320719,36.70329290258,32.006907061494,44.623179456794,43.9028733615939,41.5410624058774,42.1897351905199,42.4442283710939,37.266527809894,25.507329275994,27.1944291767939,27.990840766654,53.9325402779939,41.2879167452199,34.3916643610273,29.3629050525739,34.170585515194,40.0622700081459,32.793726555594,46.0552046923939,31.910666097132,41.462893691894,32.7137736615273,38.3253211154606,36.30236177076,54.501671247806,32.450146775694,59.6969320548939,40.7666258165053,46.725852562346,55.048102478794,44.030591803894,40.3314042723339,43.287718630946,32.7321200986939,39.0214513888939,29.119226486672,28.59724199748,28.883162616694,45.7585864177739,33.946035119798,33.085079980952,32.11787635193,26.706203016732,44.60846483327,32.849600969098,29.55324059289,33.757390273532,33.470076694552,34.284461334102,33.339389048598,40.779860488278,71.7899370771181,33.11738891404,54.922664033928,32.708836924844,31.087793279178,30.078795483078,23.660740128352,38.661144255432,42.6349483662061,31.963221848178,29.545956933998,37.617277240132,59.348811037622,42.558122811032,28.14285538439,32.530073353824,42.4970381625519,37.861037245006,35.169710325406,32.017494718598,34.13180053026,35.441582848624,39.816619536018,35.174970259486,31.497447950078,26.183383393452,34.440704613956,36.394848875944,36.628872709524,37.856055932044,28.592437376606,36.437498679952,33.144524743998,31.894685897486,39.331028953732,26.551453130652,32.883481291898,37.352996819578,37.500609174478,44.606631874194,35.675050361578,35.698191076462,44.485911335894,38.812276270798,29.638189292068,35.310796059482,45.83183679946,36.4011565376241,35.163157009052,35.406975770298,38.621296239478,40.10345993065,38.253392232224,37.23601142169,36.581645487024,33.5988863290779,45.289260782878,35.525338696706,37.873160445578,35.930095129724,31.764070396778,39.340192188178,31.887516299124,29.2302821368659,28.366127159698,31.297416134368,35.071516130036,38.951062416332,33.079603498478,29.548980062024,33.877495736878,37.919626108678,40.92729438427,29.302346004694,33.347776466824,31.446903427878,27.722049727606,33.883831413054,29.327215395652,32.501071201006,37.56591368294,43.017020191298,39.233685760262,37.381833915452,32.695503704578,38.666621718868,34.453065026032,35.738716259944
58.1660986369667,57.0526286704,75.0432801507,59.4486638668667,57.3573405962999,68.1593804725332,65.2162233348999,66.9538741850066,66.48877767549,70.6224936654667,44.0858915620199,60.6019838210999,51.6179184302066,82.0122788602,79.7386717232001,80.3757566340331,59.7014833962999,44.20505456451,65.3420168735,79.11966027855,55.7366183498099,60.1553272165665,65.4170471267666,59.4820962511001,65.8996977480334,55.9962828576,96.8198780615334,64.2623819599667,52.8050558142666,57.6870274382499,57.6918198883939,1e+08,49.3106171318,56.5849841141,57.9432997404499,71.4478534167899,74.2850344968999,57.91287410392,56.5069211534999,50.8165285427999,59.2780712988999,59.3306880660999,46.83652933072,54.0888205481667,55.9949856240002,39.6858368824,59.75341477914,42.1660493402,67.333148426,49.2771355524333,49.7512226603,60.7037778751,51.5809512281861,70.2586868319999,55.2573080873099,37.2349470273,37.47769656465,47.5480583237,62.1132679362,53.5564076041999,66.7150393800666,47.3562126727667,57.2040181224999,43.5736595516,49.5214673007666,61.99786500695,49.93976828705,65.1472442774999,55.1186272416333,55.3764435501999,56.3503778088,57.4958991560999,44.2383330097,65.5338440251334,53.6699126344,53.2319356955333,51.968566653,77.4866375776667,52.8199772206833,49.2701151519799,59.1571801863,54.6900981259,52.9666760141667,52.4777355175999,61.8021576203,45.6802725980799,57.3602573281999,46.7964654363,65.2772400699333,74.9209554758001,31.4130955125,51.0090548390999,58.1114969669333,74.2452912436998,50.1046375586668,46.3708752861067,61.9247252383666,52.4889685561,49.24620662626,44.7603889571534,51.3700395432999,45.6899127321,56.9516910002333,58.1301921222666,69.4809230475334,42.2353020083,48.8070559524,48.5847962912667,46.8220069572999,65.206185956,52.2851602577001,38.8725230018,64.385378439,62.5053242989,69.9409593864,56.4652280594333,43.0722857555,43.9382569719333,47.1692385102333,44.3078806336334,57.1122333377666,44.8662333707,44.9657093117667,46.4911245893,60.5138866397,36.2386496620667,52.7237953761999,50.7748410739334,37.8051361870666,42.8933803033,43.4291917062667,43.8556519562999,64.2084064503,56.8018517395334,47.5856392066334,51.1391667581667,40.0290548006333,48.1575238427666,64.94937218645,63.7094417197333,50.7641342275,35.1522007578666,51.6616974035,49.9925551569,42.5450802287,46.1664285532,48.0354713117001,43.8197438589999,50.0547797992,41.6639580410333,49.715612568,49.4358411336667,56.3138165762,62.1007467395666,38.7053713467334,49.4057869735667,51.77164061503,56.1163960277334,39.7585697224,66.8276673673,58.0667070417,43.3585480889,35.5896606640666,58.9884562153,64.1895375671,51.1841199854333,41.3265158119,44.2640896594666,60.9393738452999,43.8108639249,50.8724382685,43.9370356283,53.1182130554,53.4859916,45.0542031909666,67.3651817744167,54.7380040019666,51.2680614028667,46.38547718837,45.0459225030999,51.4355071574001,47.0966627027,51.0424403206,48.9493082855999,66.0439638544666,48.6530967862033,46.3698694239001,54.1603025171,52.7429289624334,43.6703644645367,59.0565710396,59.0017733464,65.1858120468,52.9479716741667,49.6930072696333,46.0299369697001,53.7556251483,65.5256497250534,43.9748535071666,55.7604962112
46.4817175856666,53.3322401718667,49.0984729273,37.8779995611,38.2361078300334,62.944174441,55.2989773245001,57.2789948092332,36.8340020591,65.6329134993666,41.7020855489827,46.4199569129334,61.3754381409066,49.3139550477333,63.1960509334667,44.2371562310666,78.7966267353334,41.237047562375,48.1763239025,39.2900508761701,56.9273488700099,56.3001461717332,39.0550863327001,43.9396108468,42.6366561913333,38.1465514066,55.8510145496333,62.4407511604666,69.8472877095333,33.5038942316666,35.3923262385672,49.3106171318,1e+08,42.6037048243,40.4809439392167,29.98044926649,59.3256498002101,44.0057392768,69.7209282361,24.50702856573,35.4452776565799,19.8490022129999,25.3869402405,71.9107047421999,46.6796713642666,22.6164154181999,18.4035687785733,56.4218162683999,27.8286917096199,40.6504903044333,14.6386548836,31.1483496842999,16.643931654234,29.7310468792,19.6724037880766,26.5367973056,49.3944496922165,19.9393934498,61.2426646119665,20.1487711187799,52.0597485439332,44.5896622018666,35.22442362655,13.6336313962,17.7961175878999,26.7679737161,38.0940411212499,28.008173552,10.6588921268,15.3609933667,17.5017749644,26.3591552947399,30.8140991903,42.9260923324998,27.9367678510999,39.7254415205865,38.556756606,53.8548682572,12.4791973963167,23.5530407802999,51.5687244371999,14.3006279298,38.1232368487666,24.1310813117999,36.9431816399999,28.33045272216,23.1489857379999,39.2487389599,56.8002975590333,52.4443888441999,42.21995933372,16.2305311719,14.4420095014,53.6225956019,43.2736394763,18.47329105546,41.1946691456666,34.2644804292,32.0444000240999,36.57852576818,34.6538278983,36.6283057491333,49.3767715417001,34.7609014436,65.0008942111667,28.6505895821,46.6496950804,34.9424038698,28.9049715035667,43.1517736795999,35.8928670706667,50.5203848771333,74.7063798996899,50.9726704288,57.6484433546,50.8741590533333,30.4431316509333,36.8560581669333,28.8406171726334,36.1533410531667,41.3874967813666,32.6246229807,29.8428125529667,31.8562341734667,55.0231742394333,46.2659690987,38.6096737669999,43.7826593795333,31.0839276511666,29.9743475846334,35.9318675218667,29.7634178402667,49.3863261458001,34.4844399063,50.0994753952,39.7057113672,32.7966317499,40.3448356548333,28.81133369145,49.6088747616667,34.8545063633,62.8205759894,30.5557268822666,31.4582320440666,34.2754378108333,35.1537883102333,35.762441143,42.1664944531001,33.1071740948667,35.8281260998333,32.4431358719,37.6206699534666,39.4592093418333,48.4837773133333,57.5719269340667,30.216167659,31.0339230388466,49.2787066688,54.9960497754333,46.6523071494001,36.9943721387,30.5532830131,35.8996279479,47.1514081427667,49.4694177294,45.7481852992,29.8561110542667,34.0898341223333,45.9312405796333,34.4057492333,35.6318599072667,33.3164000814333,29.0531574434667,32.6567728253667,31.5557835598333,40.4100327742,27.8934665274333,43.2946989874667,36.99197046247,30.65864668,29.0592474011999,37.811990178,49.0796877444667,35.6992476034,45.8851726162,40.1481364924634,35.4527298246333,44.9120319301999,38.6045658514333,34.51561148477,32.7894881716,38.8762148933,46.0859693202001,40.0503553386333,40.6997466169667,29.6361014025,28.0220835739,44.2212709085199,27.7206581565333,41.5042828485334
35.7298870396666,38.7881642031,52.0933577536999,49.6031156357332,51.3369814073,46.1472290594,42.8248485677999,43.3241951009732,47.9370912128799,50.2676953263,31.3058648907399,47.3154208169333,42.5244569871733,58.8915904759,66.666599273,50.5627596725333,67.5330000195334,32.43385909685,53.1861891315666,52.1963381071601,49.72064324221,55.5109499525333,38.0020772372,46.2083413577999,43.0847450089333,39.0544153101,59.0031285667,68.2370365389667,64.952299131,33.04368696325,35.752889900994,56.5849841141,42.6037048243,1e+08,17.7052900423,35.5550173540999,46.91956005364,51.4275746959199,48.5819683704,49.6342814090998,56.0049103069999,35.0833942036999,47.4158176441999,54.9044781826999,17.5128295624,41.509794625,29.9446295356,51.1308044904,43.2236935261001,30.8620479802667,33.7119479354,24.8892551123,42.5418159172669,40.4068466731999,29.3984151621999,50.2120218132499,42.72358589826,51.6629623672999,36.3518085889666,28.0329896699,51.3214176866001,54.0136382329666,11.30797735265,45.5279491622,42.3473675471,50.3557392116499,56.6078287476,40.9291251098,40.4865177792999,39.3935759915999,37.7112762482999,22.28208836366,49.9655953120999,45.5140822395999,23.6559754448999,13.80170703492,9.7645271433,40.6212355112999,40.5605622372,53.0929297,37.3824351212999,39.7729960105799,10.979070091,30.0760720016,16.4183229477,51.2535000333999,31.0928214918,52.6850641965999,53.1375144273666,34.1211916523,52.5469565021,45.1777639337999,42.7592389401998,52.2232395294,17.0768987588,49.3070319231999,59.2034113555999,34.9603754258,17.2024300021,28.4991851517,35.2603891113,38.5189511785,39.5233890761,25.8950074735,47.9732423387,32.4165464413,36.0269078951,27.859099075,35.0681353237,40.6096788921001,36.7322084309,38.4016075088,61.5006623566899,43.437180065,60.8553069524,36.0806483932,30.9144651645,24.7019227644,22.6050014325,39.0652115701,46.9304195897,33.4833482489,33.6989989596,34.135613501,57.2545361103,40.3426001806,30.345323338,30.4160983002001,43.6339111287,36.1052087834,27.1593002461,32.0665861528,38.0742797343,41.3965464418,37.9899111061,43.3398000649,29.2671898818,24.435578045,34.49717817285,36.6700800714,32.9082161311,41.6098429857,27.4418249547,35.0708206087,39.553828068,32.8039626059,44.0979571709,37.1412370434,31.6941863016,40.1392391327,39.5858510704,55.5381840731001,39.0512105056,43.0472580706,41.7214715486,35.3051312725,31.77710703757,38.6757277225,40.2596205507,40.8178814886,42.2838979736,34.1203872561,47.1744300789,46.3433345765,36.0918994038,42.3246580299,35.4261849435,32.2949392077,50.6142830626,36.5635090771,40.4597222665,41.0462087701,28.4215609419,43.7754188617001,29.792663622,36.83910634855,31.0498321439,33.8980200757,37.69918395803,38.992301466,35.0511541011,27.4390542483,32.6867958029,34.5608111026,47.9846998535999,30.89845602627,39.5590399122,35.2024960586,21.8107776782,30.31477859303,32.5001625807,37.6501531765,44.4254399592,48.5122783832,36.2520257059,37.0106610180999,42.8225214639,44.65866261448,34.6557289106,36.4930255157
44.7405803046,42.8660429713666,64.8689419950999,59.7337295489333,60.2400997157,51.5056515354666,59.3639757881,55.1211490029333,38.9101171883032,65.1408212696,32.0966690368399,53.4701862453333,50.1146330078332,56.6184873670333,77.1007240909666,62.5929343074332,65.0774173418334,38.947053425315,58.9965897946001,53.01068305662,61.49935314541,58.26935792195,45.2457571897998,52.8702968611999,52.0582471322,38.8467765277333,64.7545507847666,76.5505877011666,62.6405094578333,33.7750231249,39.896054383694,57.9432997404499,40.4809439392167,17.7052900423,1e+08,37.1630489144999,44.9141860650099,59.6389829381201,66.6098568401,46.6476111890199,47.7658332869132,30.60514785415,48.6333265410332,61.9661923344999,27.325822496,45.5497601633166,28.8611891481101,60.2559032554,44.35746310743,31.5934691082666,29.0053566560166,18.1643754980833,38.7286413418003,42.1247156835333,22.1636607179,58.1055034286335,41.5475556105833,57.63041996015,48.3433184065333,23.5379079162699,55.5374563047333,53.5751030613833,15.1632671433,49.4247819433334,47.6334603540499,51.5404966239999,55.57048838665,42.2812136449166,41.01005193575,32.6764858471,35.7596239871499,16.0776819722,55.6810159230333,51.4006812580999,15.3929121977166,22.6034684614766,22.083654513,42.7627798589998,43.10748128645,58.2397760287534,43.4904558366,38.69240056283,14.541251317,22.1225909435167,16.761898391,51.2518039995032,22.1705000962166,57.8559636489332,57.1727182224667,44.2328022940999,50.8343254909498,46.5339026463999,38.3212818821333,53.6342186871334,27.6886773809334,51.9983912405101,63.6132317118832,47.5585108520001,25.8687474333,14.27144300653,32.21757945305,35.7122375862167,49.4017542614,29.75246174895,57.7981793184667,28.6237018394667,48.6905540600501,28.3265808638667,35.5086072271167,49.45614382,33.46225623155,44.1220290417334,58.8961416577067,50.3081020168999,67.5876350356,42.9095742711334,23.5422687292333,33.7770150741834,28.5534460828334,38.3928264568833,43.8812773931334,29.2402173051834,33.7649038320166,28.6092487519833,57.4617746941667,37.7522329224333,37.4091814684501,38.3995692987333,39.3787932003167,32.1406161404833,24.6924616501667,29.65514761445,48.4506792304,39.5418712534833,41.15944800615,48.8438608795,30.0559435277,27.7356014727833,35.7143285069666,47.3666233830833,29.7950708481833,46.5129904865,26.7327692048166,32.6252324449834,35.6567997242333,33.3987915157667,38.8431002705167,39.29976316525,32.5844950811833,35.5183995292333,37.2294169275333,43.9612839792166,41.7256868657833,52.2116653592334,44.7133060567333,33.0084685677,30.1802472656867,45.4516670518,48.3686964501666,47.6575014363499,43.6456504534167,29.4114537823,39.0617042048666,50.2713841143167,39.2008571711,48.6540895043999,31.05695625185,37.4831483920167,46.4577685152166,35.3657655197167,37.7650587948334,38.9535721498167,30.10119764095,39.10239305835,27.0090291158166,41.68045603055,28.8282520914,39.16592991875,30.8723474104967,33.3523348562333,31.5770380414667,36.45529408155,36.8462864361167,30.8462064065334,55.0049075474001,34.1486572126634,39.3681063620999,41.6727646004499,30.9629465747333,28.75999747228,33.8827152477,35.6386765314833,51.8724722353001,43.1541256073167,40.47457593635,37.0632511551167,37.4228203345,50.47864401683,30.5842698315167,37.4645184002999
43.5320599677667,53.7222343228666,59.1917938511999,36.8539339491333,43.61069194856,46.5438686568,64.4431557986001,49.23746502874,43.81500449309,72.1915978218999,51.211833673596,50.8712163270333,65.10593564016,27.8244471545,70.0837220139999,53.8573697031667,97.7683945104333,48.1810622849149,61.5539425884667,30.06805684727,65.1292813440099,67.0796627738233,44.1976075318,45.7488133349,44.0745667046333,46.2022417417999,50.8930000300665,67.4372348550999,91.1485131105001,45.45414389774,43.904272446694,71.4478534167899,29.98044926649,35.5550173540999,37.1630489144999,1e+08,52.04375489726,52.6712692641,73.9737487921998,33.3351777281999,25.70951445836,26.19935427989,35.76805263589,76.5488109771,50.9022767767,45.2690654081899,22.9732505024,66.5369774136001,27.6547495897199,49.1810157584999,36.00411258774,36.5656998341999,29.2738371596042,10.30627363969,34.1880499598699,42.77843254114,59.5673935309099,26.40953814629,69.3907643379666,33.84090089488,39.8991728151999,63.6432418981567,32.1894672140666,38.7274323724899,25.9272873210899,22.35624106539,48.7360987874999,10.60009179564,22.77764152929,34.63414958526,26.2446907819599,31.4997340093499,37.06780913749,41.3621343111266,34.3979733657999,43.3368257024766,38.1528870030999,44.7224124083,23.9176130576599,28.0193357726099,51.9506901281,29.1005705400899,33.7943091598933,33.59843234299,37.5210862007,38.1199346613319,27.9828224474899,41.7091767603,67.9097391253333,43.4768439891,59.9588411125398,27.8364795211899,28.16439691789,44.4690463252,48.8960948524334,34.2012690717499,53.2437287282933,43.3792862113,43.0286279906,44.65504285487,35.17092164744,36.87951004738,49.8766630921,29.96829445451,61.4851323786,29.21940359626,42.1570455718,30.51192468041,28.39507050936,39.75567859,32.20769688288,54.22107370549,74.4444569886801,49.1907426577,60.0488443856,46.1193606159,29.70075566535,35.063312526,25.15967971851,36.86578644578,38.58687195903,32.93013934616,28.69632546769,32.5391424464,54.88807658162,51.95287775547,35.0040826584,40.8272518356,32.40300844247,32.5706779985,31.12488163185,31.6707500507099,45.2150332128,33.77197523938,52.7789519797,37.59198349948,27.76458630149,27.14058186721,24.91592402044,40.2447334009001,31.65966411763,66.8704115748,23.77544029284,29.70276209841,33.71798028621,31.87137377713,33.64005119637,37.2874952078,30.82845052262,36.3714371481,35.48681998816,30.7670640304,40.52961361609,45.4880532469,52.9330413917999,29.57675793914,32.00733484823,46.1132901766,57.9013745544899,44.3815851968,39.39289151729,28.90679176175,36.34270943181,47.68526451009,48.6473845702,47.1636381149999,27.72012696755,34.9971075042,52.76514205559,32.50536488562,36.43487293718,35.98922729194,26.55497541682,28.39559904989,33.1732443389601,35.47429628667,27.45319574347,36.26507102161,29.72783965567,34.54061986861,29.37006293911,33.177844575,51.9082398231,31.3068346859601,44.4985626203,32.83102245263,29.97092086692,39.4303076979,35.14593412431,29.97686796746,26.42676501306,32.27629214902,45.1985774158,44.01174849501,39.3259996448,35.13166593044,32.24282685424,40.89446390203,23.3956904361,37.5526027331
49.9530175205666,41.4334832095667,66.906340936,58.5077141279733,40.5385978386899,53.8961121722999,71.7070078298999,52.8809415605333,60.55910069772,66.2238668168999,64.9651581609799,45.8834441392333,44.1265900969733,47.6897935723998,60.64349591021,55.06562258078,69.4534185292334,63.2993385969749,47.7561346245666,60.30923865586,77.4712405710901,58.9823776933432,49.5799376407398,50.2420435779,55.5574748338332,60.14479419739,34.281561837,52.9051517785666,63.6499947968332,60.48714354563,49.192018868986,74.2850344968999,59.3256498002101,46.91956005364,44.9141860650099,52.04375489726,1e+08,30.20401595134,82.5803134115897,58.8256063107,58.39241497078,48.3521606324999,59.1210233142199,59.1532174668998,56.5906640354999,53.1546165942099,46.84664905817,54.7907867237,44.6551125606399,50.2056023164066,50.42579770241,52.3482864561433,56.7106305909671,52.38707812814,47.4962229653498,56.39694234645,58.36239504099,64.5894113909999,63.2057514938665,48.70350824663,38.2103082021733,52.8448184064766,47.7621057866,58.4964128196,57.0198848608999,57.9805818061334,38.89352564691,57.9457351285333,61.0442331544999,48.9130389700099,51.7903175972099,45.16114640547,55.4830565888001,56.5178724944,49.37817389081,49.75842522213,52.25004184534,24.5499538603399,57.1116162161099,61.7110419355,51.2646012589,55.4605885751,46.1806102604233,53.4034035052101,51.2537918793999,56.47862525307,47.37328377311,57.361074737,46.7671251911333,30.6113725678,68.1996182187001,55.8074613542999,52.5710526371999,31.4008640459,52.56469897094,60.55255701206,45.7215759013899,39.8182625359399,57.86035515684,55.70027793939,33.11783368669,33.81880409452,43.1384115033899,29.74040529646,59.4877964930701,35.3347715717599,34.76673302649,28.00641662487,36.5353965308699,36.5885667334899,38.4481314978199,47.65327983992,77.3616476269701,47.3976118599,56.0049782006,34.57044258149,35.8851783001601,28.97220259816,25.35164987077,36.35047123258,44.37302572875,36.13635442648,30.31275481287,35.12261970877,60.67633463885,46.99298177264,33.21217001769,33.42110005578,47.90132574258,29.75975551245,27.51872710055,37.40879151207,37.32998097899,42.35837781198,41.70661561749,37.70444196673,35.79557057932,27.45325470536,34.0822217634201,41.49978401285,36.5206905396799,58.0859661999,28.32825480296,30.83449167095,38.05567196237,30.63472992813,36.85165519901,31.83452462351,34.22523391198,45.03639046135,41.54368892117,42.79508512722,39.12887362331,38.6861285259,49.65802965649,33.15645407666,36.52064886427,39.37221704749,60.0212496964901,37.29086908769,35.71622153357,41.34694216196,47.54865873349,53.66516566243,42.4898827449,47.49739429599,39.24079356037,30.05483321885,50.52709821014,35.66416086087,43.02872332762,33.74019030081,30.79730110567,41.27373597763,27.67781247825,37.9142622025,27.63695694502,30.16711720945,36.11165385554,39.28297166187,40.1608316345699,29.34778164217,37.71490138799,33.57781419448,48.03783102919,29.51873717289,38.54155677548,36.09707508671,28.18215998841,35.04709936223,29.2842070113,38.52647309094,45.48232880249,44.37196122405,37.26670298599,36.99960633317,41.14608739746,43.96566906102,41.54231788521,35.92575756227
