1e+08,23.183219403345,44.1751520348718,28.2010508867442,43.0142456913242,27.7380534633801,39.8055071684334,29.0213251319455,74.822998767411,54.2899385833043,43.8148759791528,28.251174538633,28.1833112330482,58.6827130099969,58.708369663376,66.0573459163294,57.7060148663083,45.2955239558597,24.0586943652013,55.5973003468151,51.9892435897162,33.287639426568,44.5058895779204,23.2623980704558,22.7285662879063,45.6217942600501,61.5971602129127,23.5075747956942,34.9021088781681,55.1969746505956,31.5734877718189,47.9436147540981,43.0246440935357,30.8530236958095,34.4897713039901,53.0531559050584,37.5917737750409,35.0684485062133,44.867884904262,42.4136766734412,50.2085198299182,37.1006450270634,36.0891989699268,40.2532582537336,35.2820464161255,45.2127125034956,48.5733437113836,60.474198667231,49.9528217278376,45.8811162055665,43.8357800469675,45.1892953670802,42.1146080552696,54.3077200552153,38.5217717319898,53.5801317243707,44.9653324711584,47.8714186484776,27.3475298377175,38.3001855233301,40.5061216752478,34.6934665494745,32.2184428393889,43.6974830324108,56.8922735570649,60.9441385567816,41.2240527234982,55.136145896297,45.8575263365912,46.2785230465194,50.4629658468804,34.5578145861919,49.7773303294285,49.2088849500312,35.629073553435,32.3476052228303,40.120678310119,58.4811945916655,51.3085013244428,61.6809097100151,23.4146475303181,44.3717637099326,35.7184011627757,41.1390895406271,46.0553319578583,52.9622638607342,47.4003839222806,53.2046218838745,27.747920635408,47.7038782621002,55.9974348925774,56.3770904067534,37.2509500871468,60.6714975854385,28.2506007159889,33.7259746156843,35.1515070942074,24.4207462727641,42.898194467263,31.4668265358136,47.9880573614188,41.5275612730967,24.7614648074279,43.0112570470162,44.6643280964576,40.8131949014039,30.0600504761462,42.2116622681429,48.4335402751105,33.8382270975942,52.9765329538863,39.455106711076,79.5277373494919,31.8982582112955,30.6107354096091,33.3095200531494,43.3505452492845,28.743463802224,34.058062885065,51.425240934065,55.609165291872,45.2297429523182,33.3826786085389,44.3506593132571,64.9710579613604,52.5735744889487,27.3600542940435,30.752868252976,55.9963904703765,40.6000349089734,36.964990621737,44.7466897672637,32.5377429284254,53.3528095613312,42.8590847774871,33.6721072038831,32.3724646187793,35.3034491707273,61.0117760056384,32.5301510364741,45.2057378149344,37.5159112539155,42.323062341026,44.7796622876624,45.6631605894058,46.1778947956428,49.3659069928897,30.8593800389805,39.2195142091857,55.2305495737662,50.2683301494286,65.7226029943188,32.6940564124428,30.9304614862501,50.6174392404902,42.1585253543448,45.4005227921648,29.2731239609124,52.5400393816363,32.3553282183006,43.3888644541397,43.458075836578,46.7429774383702,37.9699947430396,27.0658119089766,25.2234598508422,42.5949274257468,28.889394038448,58.0500228716298,42.0975353926643,49.4862208884091,44.0429904245072,46.5808235981071,53.1179154859668,36.6287035504519,39.6110914365357,41.3621813797072,31.4208436353832,43.8539357498904,48.5717774925325,48.7868525373376,26.1493024478085,34.8940343478246,43.5423067704422,31.3923563998038,25.2414443871514,44.2476356295462,26.7356075442033,36.479962289448,37.7947855907488,46.7167369997183,49.7615078121928,32.5620918766103,52.7430930489318,30.1765078751525,49.5665476479903,52.7993953248441,34.8927239509248,52.7627696377584,45.4038886859623
23.183219403345,1e+08,39.4423110914886,30.9862024571196,29.8387667434218,16.669281120909,46.6370929509604,26.9667711609038,66.0233986337174,51.4824542002607,45.7611129175093,17.5665654085384,26.5311113477883,47.4363023954287,56.7652986568334,51.3801001031538,62.7591631491402,42.1149891779732,11.1345817144749,51.4637965087575,48.5655364630556,44.2856839882912,59.9495714186126,16.9270729907385,30.807172453218,41.5885799727798,55.831382452911,24.3602775457436,34.873092662968,53.5994915684784,31.7400097456227,55.6385316267073,32.7551612022564,26.9301641368077,32.3196474314569,39.4658493983245,38.5094449478422,33.3293704821707,55.102740857669,46.8224120263564,48.7006692045566,32.629714606846,42.4294946304091,48.6720147821089,27.2905279994313,38.3491846388461,36.300829027397,46.3205350345127,44.8248291792254,37.1619334549696,36.0346910898928,49.3250015276489,44.6826197241314,40.54724589962,35.1302466431127,48.3132281279077,43.184021869493,44.6681899074915,46.9259800475778,34.2156077210967,34.0733564750396,37.7403971861667,31.8333802557259,42.6180316896122,43.9912338586622,54.2834662800691,32.0983784853063,42.0711780588333,41.8718364936239,37.4949381362564,34.0243615674101,37.1006741044916,49.0392112600986,47.5526663518941,34.9112618449693,23.266218474648,33.1049021746986,43.3040622676299,37.1703960659103,42.1692240568666,37.0107035917756,43.0695798936525,28.9538472473149,35.6090733036609,41.650468670273,46.958670933173,38.229535585765,45.9165002629184,27.579308179109,39.9252020704951,46.3446964344922,44.1623449165397,39.6996137908461,49.8121063008343,25.206383336096,54.7874689844743,37.7788818465099,27.8961549551058,33.9525506415705,34.573041112565,43.5880507661539,36.5568347298051,28.1424029827077,34.4327732807756,41.0593738605705,38.5570131155308,29.8622961630385,35.256375117391,42.7810356085,27.3026660711667,48.3707740100383,43.3688046619513,75.8134340997861,25.6622730126282,30.8452418286539,27.5963022995193,35.6251273130975,25.816919502173,30.9956980779872,47.2605112612884,62.813752017268,41.898493215827,36.0805142394487,40.3936622936308,64.1559771746668,50.5670774475219,19.7246746766743,28.7542773395501,52.6881945532052,39.3333575949783,33.7189627670834,40.9697829427782,23.5462574467757,46.5572361924167,41.1902695950448,32.3360029291346,33.7660407372244,31.5879146520897,54.7522111027641,26.3602941388911,40.9221884819846,43.1086175096475,33.9436984278398,41.2914326820129,39.8695124289744,36.910061887814,42.911084282782,29.5577896790577,37.3404998760795,52.3090834985962,42.7234961271666,63.7281849796384,25.6993844992423,23.886723959968,52.9677972357052,39.7318859844064,40.9273623998085,22.2395511531475,54.7588095414101,25.6739984903153,45.7727131721538,41.8800645838141,47.9647989052693,36.1873525935168,20.5327494694064,25.3404626983193,39.1844169919103,30.5467722130512,54.2809194144936,39.9134229083218,45.0196370040897,41.345765193332,42.6932401902564,50.2033943455166,34.3116521111692,34.4366160730448,36.564661681036,32.2897927793244,38.9090249658569,43.4250396604872,41.5469487416346,19.7873292153975,37.8095063024231,42.2172852071949,24.4477061072743,26.41901630398,38.9056000940987,23.1316687734756,26.4666558652821,35.0249071932851,41.2789856539706,51.3291549314116,26.0491741073142,47.9977737741217,26.0884124311282,41.3718808479423,49.2246577734873,28.2055198803264,46.0786847736679,41.1438995993896
44.1751520348718,39.4423110914886,1e+08,38.8266320365416,26.4512404110107,39.793014673794,27.0946379041746,27.6323016009702,43.7521861181547,47.1706293434464,33.0905703372206,36.3191316575773,30.4411174542679,41.6765343729984,33.5290709759702,32.0783290826917,86.480773312107,30.3628278964995,36.7554998388761,41.2082853203629,34.3978105420011,58.8500087802201,58.0723973229465,35.7404630622107,46.450886921113,30.283414948505,32.3885314853783,36.4188651429107,68.7701814808372,41.94605750475,39.4576922243324,63.6268034990561,38.6249532719273,38.5435723527202,44.5551652371606,33.948502402421,33.9055406595762,35.8973807859929,48.2786920339333,57.6634893142544,54.2976665943404,39.806846953367,55.951713854555,58.8303722120487,35.490779115863,36.1918211360654,38.7151225184597,36.2843653296062,32.2806502500943,53.8782425820203,34.9200235745871,45.7946066661131,53.4473176175324,35.3784306397897,28.5443834379309,45.2298228271333,36.3398968171742,48.5553336996687,39.5698134616309,33.0105833352428,20.8356899883533,49.1276883753035,31.7549300755668,53.5902316634048,50.1377672974128,39.3073520741023,32.7682464861976,37.2118779731994,36.9847599863909,27.0752505158036,34.5526644730773,30.6631431365774,47.1496257679702,37.0583698445595,36.7122747735357,41.4961543116108,28.6297000009226,32.3971273741368,38.9883352252023,35.3373246790845,52.591102027101,43.0407199858512,40.7616180478964,42.1019018462729,28.3562892527916,49.5060595625808,33.6987597441171,47.5526876053869,42.966972687125,26.8443579832767,46.8707106116173,38.9855729603774,38.4117341938432,32.6536843834637,44.9058460548612,51.2676856031165,37.3334777033655,45.698778726119,34.9254654563488,53.6207348105374,45.3835340712976,44.1070340671714,28.3510132440285,36.6323674008036,31.0827779436905,45.2749477663952,31.449606467119,35.2841569555059,44.6242196973036,35.6778928783453,49.5418427530774,44.3475525688072,101.150476650898,29.2427626737262,45.0553435180513,33.9147115627678,41.5149944127893,33.001499805875,36.7539323085297,35.8027813937559,51.1564309642,51.0849802876071,44.6396749102143,45.980028392257,58.3697730919941,47.9572606362155,37.8569360082286,34.7772756813809,42.377377047125,43.3834966444929,38.8045218145,47.1757980570548,31.9690535951608,47.0036773156786,35.1463658062977,40.9976276845952,44.8878433610238,34.0978238210179,53.5074838434321,32.3883856569405,47.4239478209452,52.7606473095655,36.7716417015,46.5347245724465,51.2106100257559,44.6305554622619,55.5611296398334,32.5542853941607,40.0968615997095,40.7215398231012,47.6265786421369,40.2683895714179,44.5755698272893,29.0924478308393,56.3429193995595,44.2527872578726,47.685823246195,37.4468243154822,71.9681681022798,32.1822906239727,33.9527985573036,49.5103720518928,54.743877134238,27.7248870867869,36.2343963033321,36.2701843913619,49.2477288059523,38.0116334747262,67.7187667583988,47.5396492030572,50.690557685494,45.5065840682274,38.0723754094583,42.1130519920881,39.0876743067215,36.5692374166286,39.399342233356,41.5978537226024,45.0284490069586,49.7028526031488,48.6066494645774,37.539567895125,38.7806697080774,44.836714759825,34.0091608453547,41.7030141318598,42.3882738944119,34.1165238864905,31.9378662947024,40.2827837884252,37.7736518013584,38.4488146394131,32.7913531096667,55.0353331337678,40.0222876516072,42.1258722660595,44.8234579528274,29.7233128095133,40.6566861406286,36.3795603212524
28.2010508867442,30.9862024571196,38.8266320365416,1e+08,22.2507734747166,22.1191928368555,33.83046103125,17.6215385604389,61.7869109917166,39.5670911569444,52.2079902100791,27.7994993573334,30.692044375859,48.9830173964962,46.3615867887778,45.4556779147222,69.8139401515654,47.0536118416385,31.0104110842954,48.5677873747225,45.217507380235,36.4607093554524,41.5938906326408,21.1197862164083,11.4335070012778,48.8074471368051,46.8063926422627,31.3142094806944,47.5885256959721,49.1555790852856,32.5897268526127,52.9091270656722,38.1155649299583,38.0873556585833,42.5665338497003,37.8260376112552,35.5502425525765,27.552120899708,41.9866790954694,41.8317058674083,43.7584653786862,29.8731676285139,44.2243716710328,37.3350839886678,34.3879174912718,28.7430180533889,43.1714170085282,48.249758058859,40.3681398285953,54.2792969482334,36.3593789391691,46.0877961524235,38.2794232931737,35.6354906471728,32.9580059497515,40.2247247036237,36.6701325698055,35.3964736308472,22.5620164504008,33.1811546422333,22.1670240839608,43.3661869193055,31.8258138424243,45.6907837158333,60.6420130192082,46.6888649221194,38.836340912268,38.918542464875,38.0770268398472,30.3889901565556,41.2061177315,30.1349229610663,40.3042963524389,28.9870558728889,36.7561219104802,48.2991566862777,29.5221407309723,49.1555464335654,43.563821794729,41.0168205036999,31.1524530715139,38.27926195355,42.9716477299778,41.2498965300852,35.6886687403638,38.598344312255,36.2440745721805,38.1945986734643,27.7563378964999,38.82202586658,58.4637146425064,35.5487505116055,24.7573553413591,42.4056795027161,25.7540795583578,34.1504526503576,22.3285937410567,23.8845698812361,27.9202557777778,33.5982434950311,45.3904508344167,40.346797232975,25.2916014109139,37.3554962117222,38.2273063197083,41.6978313204528,31.1950224734583,34.1499692449167,43.3414349436944,27.2956404535278,50.486358289,41.1540950795834,85.6921136307678,30.7096315564028,32.3296951475028,28.1921176561944,41.8624814404778,29.66187722,32.9877916,44.8446582906528,54.0765900944917,47.7425668412222,32.8271281650833,45.095652471289,58.4551694209583,54.6743912221083,27.4911495897027,28.4995589298416,48.3825669117917,39.3025190348639,38.8905583490139,47.0313355594417,28.3251612310278,49.8914260919722,42.5497195274028,27.7473864090973,35.1016777811945,29.8629214279444,54.6987168757833,24.4650255469166,43.0589207872805,48.7299388961667,32.8186485481806,42.792012820625,41.4061111364861,42.6597850339861,44.8635885061389,27.1251363842639,37.8791229605944,52.5418396230417,44.5139631327917,51.7323608991834,32.0213646244111,27.1736531830138,53.5822805539444,37.4700708313305,43.4164015863811,29.1279274301111,56.0777256149306,28.3552389864778,41.7780387464861,43.2868856329861,46.5287662923056,31.9477576825444,28.8720912463111,28.2884511536361,39.9539475272222,29.8150076461805,56.3921985461667,40.0660089294083,45.1372523492084,39.2089449005694,40.7171988395556,42.1717287876417,35.7529428654416,36.3333799712861,41.8444256476695,31.8385530668972,41.5204062522244,44.5660367062916,45.7288086530555,29.4896947544444,40.149596983875,41.6778941904973,27.1877213682722,32.6633784629756,34.9307672430806,28.8948106787,32.6203679802779,37.3370580579133,39.5451682024139,52.50192467295,23.6224487003472,47.9999651919444,27.99926517375,46.7756029147361,46.2172003090694,28.2778040732183,44.0550647260611,32.9976546192166
43.0142456913242,29.8387667434218,26.4512404110107,22.2507734747166,1e+08,24.32085608565,43.5454634982444,21.1138951022499,32.2195045330167,51.2180794210056,32.8968251686223,34.3491559477498,19.1421375535678,22.7088995306886,47.8735757183499,32.8470558369166,88.227072413532,32.4721103580832,39.275244846709,19.3144771159863,43.5096576991783,51.7422427966356,52.6837357985797,32.454328046525,28.5378390620167,30.8863160211308,33.6334872484386,48.3199990204333,60.6478203153223,23.4907023426477,23.7327606454985,50.8159898402071,29.71871536345,28.2674366189666,30.9565140564749,16.8615106299345,22.1418805377107,27.3270354402408,51.2355398151581,38.0386741531776,29.5044992415412,26.8089834947527,41.0258341159082,41.0708426630339,27.0011978560166,22.9549675076999,22.880759716705,40.1120267267948,22.5090286524395,42.4435472173808,23.6506899159636,31.4185843583873,33.3667321467877,17.923805219345,18.5901251201791,31.5050894583784,27.6318209426388,24.0309875592528,44.0137031175928,22.2132658072945,20.5335021966311,52.3014042254666,25.584209417937,33.8793762451416,35.7696820351547,27.2706514114166,23.2147997365125,18.1780080486625,27.1707814677416,22.1998836384999,23.1949361443333,19.6343324121686,26.8528121671999,23.8992704176833,22.7541899394749,35.2615740907083,25.3897444916499,25.7919388362713,21.5271672081,17.6294800016143,43.174797465275,30.8904204693749,30.4884838460945,27.2449516379454,26.117865487525,26.7537289510994,21.7103480613084,25.0906609450095,31.08730470035,21.9927741027687,44.9515874430854,22.199526004,21.9227804029789,24.8858824424002,30.5762579774845,35.8175209419725,29.3299087505786,33.7108637542166,22.8364112165334,39.3409954630399,35.6619030478249,31.157006825525,35.2512520451749,27.8207851698999,45.625095543175,33.22590381215,31.1299759360251,26.39892308435,32.290056119675,26.4552441551,34.770837213925,45.4754537513,80.5536946817651,32.9552383582,37.83701469575,30.845914587225,30.1574778258999,28.5295664646001,27.031236826525,37.0915990407,34.107881337325,34.7560878483499,28.861094948025,35.18703993595,57.2834248578501,48.2702658367501,26.95499113,29.5669669017251,33.8706988266501,27.5292975231749,33.0135379080001,36.3157102297499,25.55469793125,32.760700687125,42.48045823445,27.79091397355,30.2170538347499,24.6082538652,37.62570798185,26.11809477105,31.7695270403251,55.79921922735,23.9087288071251,31.7933063528749,33.8636830440749,32.0028607456,35.2735342936,28.260205223,27.445172878975,43.516368401975,33.969263563675,30.1777656336,29.849135617775,28.5347230116,53.3725651439,27.5464448507499,32.72662611687,30.52317473605,62.066317157475,25.975182379825,40.292939698675,33.452234200325,41.136146201675,34.7651643964251,31.2502198287499,32.765886206525,34.8150867679,30.3731867675,46.1912179886499,28.3745338757001,33.2731670977,31.67208934085,29.526587183075,27.20528083515,31.8615297727249,26.4353849017749,31.7005490356999,32.015453748775,29.37352815078,34.2894942591,32.3699622448001,28.0486062525249,44.0040403084249,31.300584937075,25.9641755045751,31.45617017208,23.423226776075,28.7760301563251,29.13828193595,27.4106140937049,27.7282871722,40.84945449265,25.9609026748751,39.63949434845,30.050245665775,32.620214905075,31.3953129197,24.92257679923,28.753184215275,28.422548803875
27.7380534633801,16.669281120909,39.793014673794,22.1191928368555,24.32085608565,1e+08,45.8896706383694,26.1694543110999,68.7233627054418,38.5121265575889,50.4061684150677,29.0552629828999,24.1408896092881,43.814164215571,49.7272776672333,48.4509795327416,74.1487713310714,48.0318337202485,25.9030358311408,40.6425008053743,49.0991298699363,48.695912150719,60.1405432772548,23.126937401575,28.8627096435334,44.8882130928601,53.9488813095387,35.2283954368833,50.1985049277834,50.5090716004559,31.0637810119177,60.0515961447117,44.5600608155331,31.1990624962832,39.1400375677333,41.948023065657,37.7725905636881,28.6136280451121,59.2781446762728,49.7849117942333,43.7576811697545,33.6691719625666,46.7222922087891,54.0159552237728,34.0982361101976,41.4204278662499,37.82790871141,51.1833714258434,43.5921133889209,42.2663266211379,45.6749091690779,46.1181629775374,47.901398887821,39.9080813286934,36.2136512220374,51.3853215582238,44.4180321487888,45.5759842162056,43.6283452391499,36.5341034139833,33.5488425313477,41.1589228242833,34.5220292391386,47.5441569809,57.5122689723999,56.9424205061999,35.1908225954374,39.0772535689917,47.540561654,44.1476345304833,37.0727567491999,32.7186683824651,51.0057713058833,33.9697091350999,33.7867562391594,39.9501098719667,31.6600387187832,53.7011468621522,42.5851847504209,43.1514705449999,38.9086483949833,45.2211290602499,35.7042039826222,36.4183532759538,37.6548661630499,48.2959804080283,38.8240111314556,45.1498555278356,25.6563854070334,42.6776297485767,56.023623700079,50.7216244153834,37.3649261036817,42.9891329013369,27.4730440236934,52.257095005044,41.1477900039737,29.6713475888,33.2995473074833,41.4374292711632,45.7563055879,36.13227944435,29.2323038148334,37.2737389784833,38.8403965193,40.6384338999834,29.8933141880167,35.0076901205833,47.2314818416166,25.3812841113167,51.1238518337834,47.1346004514834,89.55881908914,29.7533895557999,32.720808457,28.5571673138,36.3721202389,26.2318574301,35.8490280950667,48.5205401155,54.03068322095,42.1505002637333,35.2679997998834,43.4327530199332,64.8892179882665,56.1884577896167,23.3539126534,24.3298588083333,53.0062819306833,37.1616158260833,35.9828590286667,44.4971295732333,23.4928070577,49.56380421385,46.2190644588,31.4704271494167,33.8437977864,31.8211409693833,57.9916294768832,24.5100458684499,38.0208555938999,55.0059731328332,34.4979001102,42.9101618007,38.2259942808333,37.5146462403667,45.7389134174167,30.2266900657666,38.2299681665667,57.3152585968501,45.8356577473667,51.9734319622333,27.96264955345,24.75898520035,62.5047281105,36.9301408247333,38.1242010391034,25.8565603164167,65.1600897095166,22.0807414677,47.2115921311,38.1956729155333,46.9922807492333,36.4974586950666,19.7144301571667,24.7620858093166,39.90289238415,30.3473689166,53.02559737325,35.38536252355,46.5012438617833,38.0376875614667,45.0269539867834,48.7642923731668,34.0325234551,33.7387229359334,40.5771075478,31.8179326602833,37.7041087698133,39.4013916477167,43.6038514959168,21.8431095996834,43.2617107600999,37.1192981052833,21.9203133563167,29.38160562714,34.9909422362001,24.0441819400333,28.45377196065,36.6723138133967,43.7929374894166,53.1533563765,24.3231095817166,50.2586772178499,28.41611994735,40.8586305648501,52.2062511032167,27.01765225114,48.6376489026167,39.9216794151167
39.8055071684334,46.6370929509604,27.0946379041746,33.83046103125,43.5454634982444,45.8896706383694,1e+08,31.7543576569833,64.025695679661,38.3295496369443,51.598935134997,40.6602733872917,36.723179328348,52.9094022709759,37.732843030875,42.1073872544472,65.0057164908254,40.0009776934569,45.1055409408958,50.2608639022138,35.6525073672728,48.6650005162004,42.3776763396608,37.161838320425,35.5802029793054,32.5792661000094,41.899911916414,37.4205442919443,58.3165914429166,51.6470150854998,48.195675061804,62.7602547340598,52.7025997134139,49.2412378392362,61.3911274758887,43.721929283979,52.917427519855,42.5679205784463,32.8511145258306,59.6144191342195,52.3785473312866,50.3690211729583,55.5917970329885,44.1597398986742,45.8499115039148,52.2302078384029,54.7358180025883,47.6805080250991,43.5549671774755,67.5226243512231,53.8658595622285,49.1408035492847,57.2702971977253,42.8243081075795,50.6365475207264,56.3112729583613,39.6956104084694,40.7286674124583,27.9745811405564,50.8395811994305,34.1935193949923,52.6615634415833,41.6740662184179,55.2920827814027,67.6955764827597,42.5535449293667,53.0357858327208,47.0305694614445,47.0074213551805,45.9371741765695,55.6354230187361,51.6044273967917,55.4252684892639,48.0021477968472,55.044909279514,52.8185446767223,45.2823915560415,48.330165883355,58.3842283395902,51.3879787865852,38.2099331641249,47.2712105720027,54.8515849983139,60.0891906368067,38.8250965077083,67.3224476582801,49.634424221875,55.1896337182877,40.0145856349028,37.0679776638193,60.5126551707251,54.3276683732972,47.1520004745536,49.2193155002061,36.0819493273345,46.2726194844091,35.8819784618877,41.8806862668541,42.8576427654722,57.6219813767293,55.0485008211389,43.7799756647388,27.5028894468083,37.741332377625,34.1205384670555,47.8902014802861,27.0996037628194,41.4875120312084,43.0621248431666,35.2702475350138,52.0258352564445,43.1558820254611,71.7485086525038,28.9364845354306,42.0302409069973,40.9357889975278,51.0953040592694,33.5075835713889,31.5378687159722,38.8109283060833,44.7343035207279,54.9915990712639,38.8696943713889,53.2685682794139,60.2970491915416,54.8655552461916,37.571288964675,36.8550605796167,44.1978633281111,49.6770750531,40.8116825675695,51.9195999032472,41.009473173389,48.2131179961667,35.4151630268611,40.3790865960139,46.2584394555694,35.9851631690417,42.8372703325473,36.1993929934028,53.8042984590722,42.1184939084167,39.2469399703472,47.1376463884721,52.2687503446666,49.3961709514304,56.647035560375,31.4842513295277,48.5828228648444,42.2856417461111,52.5994655714723,44.581773133775,47.4532174656889,32.9695755943333,48.8813123718334,49.182238001475,51.2412747778534,39.1930322071388,48.0869486801112,38.76652420945,32.9750430343611,51.0678217424583,48.6878148158889,25.7985381476917,42.6232344585528,34.8860482433695,53.6753711969305,35.0816635456666,73.8545015426944,51.3085596799361,57.0738201498751,52.5641079196862,44.4077213718473,46.0786845764612,42.199204763789,39.370135884025,39.4937087059056,42.161254558175,52.3343455181272,55.8008164371806,50.463200575,35.9907861758333,36.7161604936527,54.7601262560862,36.24005659055,42.8592279724378,46.8244442836362,30.0455802892027,40.3419711088195,49.040102009455,43.4831572490805,31.2575853613417,34.3125612332083,59.6109777203611,40.3250483970694,48.8355845998334,48.5370411897916,37.2193124522367,40.2637971591861,44.9528001352583
29.0213251319455,26.9667711609038,27.6323016009702,17.6215385604389,21.1138951022499,26.1694543110999,31.7543576569833,1e+08,59.0905599448001,53.3970815151665,40.0970840889392,19.6470115682167,21.9809928069963,51.9542641836113,56.8501040623832,45.1800011088289,71.2861664304488,34.4766636965366,24.1699227831515,45.2482539231319,41.5756931914628,29.0464457741524,34.6871623637256,14.2581838358583,18.3451022176666,46.3033175477275,41.3032540514961,25.94217753155,44.1510173481388,44.0480370924131,18.9869799080881,46.5515609580476,32.4024367543499,22.6976966292666,33.7054874765226,40.9511087201433,21.8754142568702,16.6228636143272,40.3795304008415,50.9300658292666,51.7842729404379,31.043639489225,36.7311247302717,32.0566272491309,21.7841013737976,27.8465278291041,44.6234899517782,41.0512306555551,38.9807253105742,46.0274429643355,27.4980096852363,42.5785976089041,44.8792637612043,40.4511285418116,22.4326934679458,28.8526683179577,25.5575138769708,34.0194532054194,23.0785605247929,22.1646676678055,17.4914506493477,37.3366801472833,16.5195330030696,31.6672248231416,55.4171960637305,42.0009898983583,36.9264028650167,42.4886523788541,28.6487285274028,26.6639665092375,42.3455243892665,25.8713493439837,25.3397470773667,41.9846339482333,27.080760126406,37.283959781329,20.5420655042667,40.0918403437785,40.0670468809457,43.3493236577667,24.5967375967417,30.6751555413167,27.4009059313055,37.5838782761798,32.0052865344916,39.1202121606383,32.796118461975,37.1977326389357,14.81226820975,38.8926358355811,47.1200140218744,35.3783669482999,28.3003480923877,45.3647755578961,15.3173102677564,33.6022241028995,24.1184899229237,20.1940453254666,18.75936598065,32.1919593557034,44.3777449852584,37.7866509907458,23.473246330875,39.1043665061,37.5889288619792,40.1338191550375,24.4532891823875,35.1149696835834,42.2982488569542,30.5676658086667,49.9274368622,37.5072689469,77.5054713925817,29.1186731525459,35.9107456494209,27.4524710804542,42.8825616327416,28.7611935652375,32.8123608156625,44.5211754812251,54.0431871007416,48.5530173657834,33.63589859215,40.5056482320584,62.1075268725667,50.5957211952625,26.8797132983833,23.4790736900333,50.6603958942375,36.5801777588,39.3678924431249,43.0750889460541,27.2741303858,51.3891127488209,37.6849928168709,29.2710680898458,35.9350700887834,32.7217325433458,52.7952307064791,27.3715569120208,42.4908340187042,40.4323680640333,33.8674159938292,42.7459816147792,43.3612310818292,43.6293544645917,46.5873806965125,24.9030887370708,40.2005904209625,52.3704723765083,45.5470422910958,51.9213271576249,31.6401750179333,27.1791674450541,51.2134975034792,38.6570322557292,43.5538496651201,29.9857607405208,55.6504424293292,27.3934126210084,39.3617071582,42.8891249350334,42.3009001371084,30.7981756486292,32.4398453686208,29.7606752093626,38.7248125294542,26.9381688669041,55.7644096162459,44.9670703846626,44.0456527564708,39.2267786411458,41.9030606016792,44.8093876355792,35.6329451126292,36.5671836046458,40.4531554850167,27.8285110104333,43.7691370586299,43.0909763026083,45.0606971752791,28.6337831298625,35.6360474778416,45.8835027699375,29.1067284659875,31.5472889869384,39.7850473398834,26.0741893494499,32.1898017502542,37.4183607691508,38.8510783950542,47.1716852467916,27.0371808816833,45.4028903033959,29.3941255396417,45.6930230888167,42.9149142281875,30.0539125152008,43.9269017936792,30.7521322383125
74.822998767411,66.0233986337174,43.7521861181547,61.7869109917166,32.2195045330167,68.7233627054418,64.025695679661,59.0905599448001,1e+08,81.7762510264945,25.6413611132269,62.6809894614417,50.8439856109274,25.0548130912674,61.6901953889083,46.9111723739499,104.654904479483,35.4672766893433,68.2642727144836,35.4105372068825,62.1948054958249,82.7093265711391,51.716930142407,64.8433872643417,66.694047428275,36.2710957173183,43.3822751640228,76.6625534751,94.1119224927943,15.6913191384535,34.7578625910255,53.3278370218001,22.6136230371082,45.520389319925,29.0138488806631,25.2151315441464,35.5647336934963,55.8751280406409,63.8252672826563,37.168648204175,38.4698904822549,22.5034873885083,35.0624599776216,47.5037565372758,52.584099223094,26.0057997291417,22.6853947887982,45.5036061282448,23.0631063498049,29.4266268929333,18.5205100620159,27.0641673423708,30.5496043212584,30.7580048721433,16.0143506735749,33.9145708829957,37.2155502990471,39.2866315463584,65.135768513863,27.1548627834096,43.4311318773303,81.0116435432415,34.3229446567258,36.3903292428833,33.4739241511822,32.6604997006791,21.5523587474584,26.723543565125,19.1650079032583,17.940468627975,30.4843001899084,18.5298738950527,33.5140413941084,46.8545413361165,25.030209956475,51.1372563587435,36.9674443023,30.3591615962678,30.1223487912333,29.2532500169036,70.002990659725,24.651086018225,43.9542944336637,21.8973980767846,27.3918418697583,35.2658517030916,18.6018039681417,46.5458553561799,66.1661871831082,49.5344234526375,36.8361465962899,30.1124463063834,23.8236032977623,29.1078448876011,62.736979821557,37.7041874498072,35.1744967177821,50.8988788170396,48.7068140639833,43.2592753183615,36.2941991744584,34.2710975963499,52.9859951522252,35.8781038570417,65.5420630739251,34.0234122585167,55.2120319944085,35.5531362231833,39.3639414900501,54.8948825578916,37.2210962011167,53.4052318039666,71.5965439411651,59.6641934464333,73.8910710535251,54.0674562373834,35.4757207038582,50.4009198489917,37.6064337439168,43.746499913,39.2793401582332,34.7031068123499,37.6556901331665,33.5642121989999,59.8942212987666,46.4723320703833,52.1597795263581,55.1704207168999,42.0855448027334,37.2721301134082,39.2243436773084,34.5587178865333,58.2650795143833,42.5522615839583,52.0459174064084,39.2465503060499,39.5030385031251,38.9829223760668,38.4844905064335,53.40914652455,34.2487227294333,70.7232114063248,32.7375814157501,40.6046739236666,34.5327701753083,41.1103476847168,39.0969834080999,42.6271544222918,32.9967717063249,33.9707840140083,39.4989483758334,40.5108953236582,49.4454585607582,54.5849003712915,58.6820141832584,35.4918284484498,34.6144577437033,65.5787554420666,68.2019821720333,51.7469837432166,43.5726741657916,35.5368581607833,39.1232366369666,50.6728234803082,63.7118474180417,57.9588149325417,31.9853308374166,50.8869361170584,49.5712574520666,38.7446294463502,38.7516501711,39.55234953515,33.5845945232418,40.4581455772751,37.5527573140334,39.9487840701585,35.4184457083416,37.9428170013417,35.9209489723951,39.4750930619668,38.3249565276417,51.9729263830833,54.7125416723252,35.4795063226083,56.8934332871581,44.9863323286551,40.0928399863832,48.0950982441333,41.10269101115,33.074066389755,35.5104972114251,39.5024206026833,59.9019767835581,43.8686059472166,56.0554314921916,40.4692493516999,39.0108448442167,43.3386610674049,30.080651850375,34.1213219237001
54.2899385833043,51.4824542002607,47.1706293434464,39.5670911569444,51.2180794210056,38.5121265575889,38.3295496369443,53.3970815151665,81.7762510264945,1e+08,76.0327098274503,55.4828730860277,61.9595183436853,70.2893940250642,29.7051952261249,57.3455273813332,69.7425739729843,67.6777736919439,56.0642338836262,69.9278822808987,35.4863275748857,57.3968865681666,58.1347728983748,53.500135319236,46.057482096889,60.2715869111095,58.1351935107518,51.2077958781388,66.3116294740973,79.2814516198689,67.7879891187122,71.9183937473308,70.8819659404749,70.1634275456944,71.714337100125,62.2651200954067,68.2107010789034,50.283644300303,53.4861895762608,82.4378557931139,73.7182803073111,66.6399577263193,78.0948313473374,62.3243676152827,63.9095078929941,63.0958865330832,67.816440032585,54.1797468869551,60.5553919735864,71.4491338057302,70.6709012177486,71.0344716407151,80.1535902889348,55.7281403312227,66.0088205277194,73.3197622554158,61.5604119219721,65.7069831916807,38.1748311911904,67.2023870629165,46.8389756254455,68.291560262361,64.3191542864217,80.8886230491528,81.2107189620573,63.4847616209971,67.0168900700346,62.4129564938749,68.4553219929027,61.0078224280555,66.1935937054999,63.8415845343194,77.0315373372166,45.485940476111,66.2251419442916,69.4598360188701,56.6959397357499,68.9340971358889,69.3313211860764,63.3920037801143,59.0475772361668,65.6473698698054,72.4348314231111,69.2122002389732,53.6600318920472,79.1859707723039,62.5789180347639,72.5936496051308,60.396071324722,60.8697429390032,74.2501473076572,68.5477615590611,66.7368458337837,58.9554985851004,56.5377527619562,65.438591423381,63.8256812794766,58.928209938861,52.4841701929553,67.8101811392299,58.9196099203056,51.628370488836,30.3815549479139,52.1417779220415,32.1919765152638,57.0614595675639,40.5346655881389,46.5803672243195,58.8220649664306,40.2168236561667,67.2277217939167,44.6696299887749,86.2551768001984,42.1922140728056,43.5456548772861,43.9920361300555,56.7548819622138,43.9751449672916,49.7313653021943,51.3290827849306,71.5435997748668,60.4983471374583,49.4351180103055,57.8187566430249,59.4415184972222,50.6940456793166,42.1150209349777,40.2717728055223,66.5244560012638,55.0213508559055,51.3313058106249,56.3170113264416,40.8189365384444,60.1744601994027,38.4421792992778,45.3317021713055,52.8432299923473,49.430381629875,64.3232524630611,41.4210045093056,59.8818572556,58.8119734439723,51.3070468922639,59.0720687179166,51.4049749400833,50.1519013476111,61.7937360351945,45.2353848270695,51.9434396186223,54.3467742743334,59.1044084229166,59.3555576862668,50.6303582766473,38.8655464378889,51.2427993449444,54.6918457975722,57.67257223722,39.9888468484444,56.1523508998056,41.5899632398666,54.3643453930138,54.9588361210834,58.4666757160278,37.7966694821778,38.4593424325111,36.658097217675,57.4015471415139,42.1775942086112,75.14934368075,52.7924488408805,64.97359445225,54.465193257025,58.588229172514,59.352169475225,52.1215096807334,46.8569685764305,52.3329864447667,47.3893747766973,53.3903243515995,57.9866218910695,58.8445496268055,41.7458657733195,40.2398526777361,54.9077155767667,36.9766590674944,48.4375582315634,51.8506381984972,37.7616630955472,45.3997818057639,53.528041615844,55.7828958748861,54.7850389495777,38.0888133952083,66.5826228221249,46.9067883183195,56.1782719960972,65.0452985879584,41.4799955586811,59.6737023120751,55.6183870954111
43.8148759791528,45.7611129175093,33.0905703372206,52.2079902100791,32.8968251686223,50.4061684150677,51.598935134997,40.0970840889392,25.6413611132269,76.0327098274503,1e+08,40.2422161625107,32.6775166416561,30.3584821562668,64.8099424205696,55.5562447193737,84.1472518729524,12.7900748272653,48.263267293432,33.66251976221,44.2219751045989,62.6544067282857,54.5888235507399,40.2524563725286,51.5555862566846,30.493827823244,47.5942704286067,48.5202337165201,64.251538045502,23.286104436665,22.8934583985441,50.430778509952,30.7978094748563,28.9025531267481,16.3905566649571,35.7776666451334,24.7202096913311,39.0393942616626,44.154006645517,45.5837969016854,43.9029533248836,26.3045553046885,35.1162731748797,44.3227404964892,36.7959751519633,33.8001182450471,28.3571945835695,46.7382592757983,30.9915003537911,36.1687572683715,28.1906426868313,31.7234287872022,41.6739257324687,39.0216912319294,21.112387171716,38.5215569229672,27.9442819560841,41.1008065600984,48.0445396111429,29.6674571558518,47.3339254889137,65.1405316793974,28.8446541434743,31.2134181172453,37.336387151187,39.6083407388265,18.9869161224774,36.4643683439306,26.2806562276375,35.914097337024,35.9088198612384,20.3921064653182,35.0882194239637,55.3639513343888,19.8008739277845,33.9348999897896,26.1686998415338,37.9226676423098,35.1935731747156,38.387876550774,50.9320147813444,31.4896197069952,32.2861838212987,14.3997770240309,33.0176975014143,46.2009925931984,26.7824754087398,47.5629611929233,43.4105931398833,47.1524436238294,32.9679531937785,43.8542272344633,30.7031498953271,38.9906353382559,38.8770772877558,34.7273931964948,45.5560134108984,27.3218605864893,40.4058786777149,33.9236423746901,41.4097480568183,38.6756009427478,48.4201980298396,40.6858808346671,58.2389531372233,36.0776094315417,43.0446492914807,35.979329008528,38.823774670279,50.1536720441774,41.5044161023201,37.5190782296609,63.5100790033065,57.3478750272987,69.8750392749989,47.652873510405,33.8167911853022,37.5972243821647,32.3806081901215,39.9750957054435,37.7281143514906,39.9950566595388,32.5237687099067,36.7061668186366,59.3090813361773,40.509584275004,43.8726262868585,46.1850675036466,36.7404139941013,34.436884830312,38.0191472651039,40.5229423311044,49.7535785371907,42.0677685327361,42.971032880169,39.4668943573813,36.3449107174327,37.4435732936302,42.7266073174806,47.5414080014808,41.3091775751487,43.1416000450846,34.3933663208725,40.4975756064092,41.1466924797185,41.2816146538682,45.7762802945688,36.6266148698335,38.3604822727664,33.0136131108962,43.5110619762787,31.5027572550201,46.7689692541132,48.2483397300067,48.8392258792968,38.0224008426041,37.6419932874393,50.3652174454157,55.844723731747,46.555872603317,40.358294874823,41.7570105369088,39.4484615313956,39.3283933347734,52.3364263553513,48.0668387505985,36.0608944214285,39.6656020985673,55.2122835984587,40.5389674564795,43.5020216054743,38.7838122103738,39.3681682871601,39.7991978452184,32.5488882236457,40.4053770519818,35.5102511618288,34.5794086635653,37.4951615858074,41.4298960581408,43.8593635105684,39.7818394425996,47.6192471956778,39.9325545991439,49.090968268746,35.7047618517882,37.4614982834222,41.6221965382763,38.9226045694851,34.974863701637,39.5099633726689,34.8280254172781,51.2550105404826,49.6913639001274,48.6403746694828,39.7907726310668,42.2038369614219,42.7737209853052,35.1954171754187,40.2219794780527
28.251174538633,17.5665654085384,36.3191316575773,27.7994993573334,34.3491559477498,29.0552629828999,40.6602733872917,19.6470115682167,62.6809894614417,55.4828730860277,40.2422161625107,1e+08,25.5081062898475,51.9198762302878,58.2042906115001,52.4920575340001,68.189013838488,35.7106672734614,12.7956872914697,58.3127570222667,48.3456605294518,32.138846219119,46.9217713768213,9.35760327733333,28.7062029193332,50.8607264827843,52.8442860554128,24.6289202198333,43.5126592144999,53.2724069291605,24.6464046717616,54.0579072274262,26.6051012476666,27.1765300879166,27.0281430704762,41.1565053284975,30.0571708516928,22.4502459170515,55.1908815368165,46.8392991212778,53.6556662579883,26.8849763501111,37.44644340442,47.4495028375151,21.7907463502857,25.4118720548333,36.7667249348199,47.8271248753782,43.4595256257866,39.2683548993404,29.6923137245302,49.5867469282708,44.2074774584671,44.1166167165132,25.6733353387667,38.5549291199559,35.4131944086667,46.0728308192776,28.7596235808452,27.5773489113958,28.0655715087423,41.19637398875,27.6296875501799,34.854235614625,46.4975332492499,52.3021746165501,26.7366176739334,45.9461393279584,30.1671191548889,27.8799194366666,34.13198839025,28.1171470853976,40.4336731594167,47.7259718612916,24.9887448104821,28.0808075813333,24.2753748124167,44.603800393095,39.028766315104,45.1090292616999,31.2882190903333,34.3166640355333,31.1446058349666,31.258312897789,35.8965810431166,48.1302194558677,34.8361851925555,49.2435499727739,24.9085722036666,41.6613019021459,47.2941611446553,43.1205270735833,37.1605612601111,47.5719194408809,19.5669271433782,42.8866660583964,35.4247443985428,18.9000483375416,28.4362288150332,29.9205025957267,42.6697113376667,37.2625537439333,24.0352996254,35.835321395,38.733071163,35.6587386106333,28.2694377538334,32.3248258326667,43.3971365641666,29.3706956783333,46.3992638273334,41.3700340997,83.35453409319,25.2223335066667,34.2048532477334,28.771429992,39.2737797958667,26.0102144098334,29.781975983,45.765899488,66.0912248915333,45.0249128281666,36.9104977696667,40.0700090249,64.9788998298334,52.2034381122333,23.3809985533666,28.3064491808667,46.6149785151667,39.0976283277667,35.2726265175,41.0714635914,27.9157797456667,50.3410282675,42.1568035703333,30.8103827885,38.2144073781666,30.9418402291667,55.3824968041167,26.4319323568333,44.1307893421,40.9500761771667,33.8603863723333,40.9627411878334,46.0647223471667,41.177030758,45.9807316501666,24.3036197941667,41.2000913437333,50.7364038406667,41.8643829418334,66.4242104839334,28.4427175536333,26.5814523156666,52.0183618258334,41.4352370737333,42.6779176424367,25.5062764398333,59.1526889111666,29.9317105153667,43.0427988819999,40.3245540925,43.3638668495,32.7540585682333,27.7856903632334,27.7738429621333,36.8943199338333,29.6832912298333,52.5734760231666,44.3471106818667,45.4018306645,44.8485378734,39.0040401638333,47.6385622271,36.4256924307334,38.6816242422166,37.0262700576,27.7107148117667,41.2058534291967,44.9391330633334,44.4463751918334,21.2557057016667,36.3803393766667,45.2075845154,27.0753808637,25.7668096063967,39.2501512797333,25.0761656767,29.2667913541667,37.2434087458301,35.5749618467334,52.9840959195333,26.4314920651666,46.4987172263334,25.5263884886666,41.5715415435,47.4740198225,28.8794620501533,46.1732956313667,33.0717339691333
28.1833112330482,26.5311113477883,30.4411174542679,30.692044375859,19.1421375535678,24.1408896092881,36.723179328348,21.9809928069963,50.8439856109274,61.9595183436853,32.6775166416561,25.5081062898475,1e+08,34.558354084761,61.0417027841715,43.9948825428214,71.6836604701616,34.2242120426168,34.6170084239138,32.3356103465823,33.2506164381803,50.5163974626238,56.1344404835297,22.9973473940893,29.0604684559988,26.3826222445089,41.4329912446233,40.415623423613,50.4879675483572,29.6182564913631,15.9438557659465,54.6759458523238,36.0335215584858,19.3025934754643,28.7927257629476,26.5191136841912,21.2267659091786,22.9377842889346,44.9691935727108,44.1157955504928,39.4569914087545,28.469273948769,42.0593255358894,40.4835926161511,14.3349734052953,32.7257280255524,25.4637595085353,43.4901813144867,28.0123133925872,36.1075839427927,28.652316338139,31.9904261968744,38.1759236773723,32.92843252902,19.290885243447,46.038386818553,33.61455372933,35.1869626527222,39.7962894489928,25.1015610452246,28.5822508390086,49.815357610863,16.2435296629042,28.805800081494,50.059883776222,41.6555974601666,22.264959515403,32.8990114370333,25.7245288746539,30.8755402502358,32.4785011067952,19.0253528102135,38.5625034750928,44.3529649331189,21.1419355302024,27.0090962257048,21.3784727905274,29.8106153551904,31.1093952806041,39.8266598583594,30.688198316419,29.5626508706095,23.8205914632936,25.5557620556014,23.0799019751191,45.5029009035579,28.4159163589913,39.3804201738165,20.9512291705762,20.8794096631151,46.0819829476767,42.9836480686929,30.4868760986935,34.516345680318,18.9071518585653,40.4124942551297,38.4385249150213,31.2879375451596,25.2400663193202,47.5788446167718,44.5489616147667,38.9902245656428,35.2804233988094,35.806010667957,48.5201377035809,37.9043484812953,30.6252502166857,32.0173892934381,41.2418168775858,31.1113230358428,44.3428804133095,37.0403756088333,61.9199021108043,39.8223875788333,45.8908954425954,30.4546287580763,37.5338337921333,22.7808827007429,25.6428654285571,46.681716827362,41.4952899083572,43.2804141357096,32.0303993177858,40.2398553176285,64.8485180836098,48.4470411702477,29.9312235395762,25.5990102549095,47.0616175479427,36.5945784869096,36.0746080386334,42.898783928219,29.0618221944096,48.4106579259811,39.6305842493667,34.4140375149191,33.7236933346285,28.2194065454191,43.48716351115,28.7549544936477,41.6359433599952,39.9410044432143,31.6466053168476,38.6389494405618,46.4420706250334,39.6385690434477,49.6163370376904,30.3715094456239,36.2773445719952,51.9568657143428,44.5002235853904,57.6827750934763,35.7146215222618,29.4610774635618,45.3383959942715,40.8429490465381,40.3810394592415,31.3409291538047,46.6052435492332,28.986548777281,36.2621141964381,44.0089651679858,48.6561132282429,40.8890802773334,31.2226845303427,31.0230291179619,42.3950210687381,25.3332753636046,56.5475410554668,40.7621987266191,45.798763089038,40.1347390237047,39.4673678913856,45.0806537091095,34.779989643881,34.6519966994501,36.8683594064048,36.5886653989904,41.1701716306251,44.3928628154095,45.5409770347524,26.4743322034477,35.7511849268715,41.6486283852286,31.2911780253572,27.0515355822124,38.7389273718144,32.7330876898763,30.7117861129572,33.6822175357491,36.103460428419,42.3521138857047,30.0304322494665,49.780025058662,34.0992353272286,42.2950187918095,44.0304188529095,33.0278071629751,43.3398086021334,38.7577411628477
58.6827130099969,47.4363023954287,41.6765343729984,48.9830173964962,22.7088995306886,43.814164215571,52.9094022709759,51.9542641836113,25.0548130912674,70.2893940250642,30.3584821562668,51.9198762302878,34.558354084761,1e+08,48.6264114043181,33.9933071992515,99.0382493660067,37.7503429149337,57.1889172767102,18.2737895253667,58.6976277992413,78.7815675502208,62.4985022977322,52.786609328688,55.3594025403636,22.3499860000719,46.5580702525293,65.4651639029053,89.197111771924,24.0925740279215,28.0666843747779,58.0074455792759,20.8198780225455,35.7861586510492,29.2612010947104,9.67258634666599,31.2777019752345,47.0320712406028,64.490380044994,29.6404109775909,16.4079184715781,18.3780765868787,35.1881516967193,54.1435938619846,41.9078523443679,31.3214110504621,4.72145673622787,49.3886975223771,22.0088779051908,30.225744756349,21.2044856051363,35.2104166779203,24.7846647335258,12.9740525359821,19.5774208768621,37.7263372019398,38.5345708231176,31.0898439369343,66.5010611256493,28.6164118531862,43.015273463822,65.8130396499885,34.9133480059697,31.5864656281288,23.0489451347791,35.4914228725107,15.3147964585546,7.89088921639772,18.4640416953788,25.7422519739091,14.2518586468258,24.3988660732272,38.6623671631316,32.2548836093143,27.8112033395454,44.9303279047076,33.4565132078408,32.4285682083215,12.2084300172007,10.3293041928649,59.7204752565452,23.3460115459121,41.5976804827279,27.4405639506679,32.9920092970713,29.2563214996112,26.3025502983434,36.8509619587089,51.4738755174546,39.7112680386647,37.3319590706171,25.5729173958955,22.2562716119264,19.8886868068831,50.9301990397535,41.5426584072415,34.9860577558174,45.0599728325775,49.675136264606,45.7965307741678,33.4265733898863,34.4489019206727,48.6384184938091,29.0285623113182,54.5866477344318,29.6302866475364,45.5158207094545,31.7927620427955,32.2900808632045,41.5738078784545,30.1780083297954,51.3747819436909,85.6776703505127,44.4498007997045,60.1368313020046,41.2957851724318,31.3281922800726,39.953487424159,30.7867846036818,40.8504969236364,33.9457000803,32.7593510000682,33.3408797001137,33.1003896848955,61.2041419046136,52.5588828140727,40.5893456374228,41.9198736013,33.2322314024091,34.2146905687637,36.2336963759772,31.6550429025091,41.1467877890683,30.7826649924772,50.2998049502727,35.4129539281364,32.4012238108182,32.1124767992273,34.2561245620046,41.0301794526364,31.0531663357363,64.3213205686818,25.5073323820454,30.9343095783864,33.2660537736364,33.4524525035909,37.2024460799319,33.3486859482272,29.2830077926682,41.4046642129091,31.5621432068182,32.9806402468091,39.3465364702228,41.8525862857955,58.4695142114318,31.2029282490318,27.87415064288,51.3157720574546,70.3782112392273,39.5246526691637,39.3016022992045,32.9990069640454,44.039455047,37.2293410992364,46.1112135114409,49.8118403462545,30.956545224591,45.7481262068409,43.3334233717273,29.8855999691863,32.1906256218182,35.5993049421637,28.2546084954091,32.9190239263728,34.9777278362409,32.2560413151182,27.4288635391728,38.1676125710453,32.3344837714164,36.1965418390909,31.0257819390319,40.1312575990227,52.78861323575,32.4436581045318,41.0457548785954,39.40234265892,24.6296430429182,38.6050482248683,31.4451556352046,31.2192019492618,27.6163586621182,37.67084655795,44.8262460655227,43.1172910469545,43.0707675558182,31.0704551608864,36.3084786805909,33.9435512194982,26.1995834683454,31.1097886022909
58.708369663376,56.7652986568334,33.5290709759702,46.3615867887778,47.8735757183499,49.7272776672333,37.732843030875,56.8501040623832,61.6901953889083,29.7051952261249,64.8099424205696,58.2042906115001,61.0417027841715,48.6264114043181,1e+08,43.4022613408751,68.4139036939404,62.4255452296494,63.0944234712498,57.0489977227515,49.2514103221757,70.7573282168273,57.0651367500534,55.1425802466333,55.1280856199999,39.2506256593657,54.0399574565755,47.2186882386666,76.0092182086527,71.6256096344582,65.4449010411818,74.0674918447285,56.7305723029416,64.7232115505834,69.7365738854165,47.4009789663516,62.9692468473903,56.2889590934068,54.2144707650833,60.9238639726111,52.9193479952483,56.7911091651111,67.5342189710099,69.5243370145645,66.6883335111429,57.6325756865417,50.4675203189999,54.7644559346089,51.6187369641211,70.9436391102786,57.8492835938068,61.0270290429167,60.2167633687335,44.2560493186167,54.7251755413332,65.9880167840215,63.5380695943083,67.4555715564167,51.8801136686547,55.038626579993,41.0989278276515,63.6320482647917,59.3300063586628,79.2189376485001,60.5846432293968,63.4816383909499,58.3774080309917,42.8807458424583,58.5940259906389,44.8145998058749,46.150377820875,56.0682643307517,71.6645748290584,28.0931884967917,61.3596861296071,66.3397700055981,54.0254925472915,60.5252618441725,51.240002672875,45.8631765858988,58.4893976539581,61.4157836010166,65.9838067859637,68.1099541487372,53.9884040376832,63.3800605727383,55.8403360223611,64.1536208339345,62.6132037243749,54.9899658379582,66.0318021397177,55.5245769030916,54.4912942523015,45.102995118422,65.7724425380992,62.8589508666048,48.0391431780476,64.6905360209999,63.0949789603833,65.0757343336683,51.3603386038749,48.2850460848917,36.9412780764334,41.0614027087083,27.4227106744167,51.9536396323834,42.4305408220417,40.2580825257083,47.6791128060833,43.4559244328749,55.091306511875,44.6203682433083,98.0412431815316,39.0487859962083,40.5823575532166,41.8724120979167,50.7806860690334,41.6941397855417,43.5546143685416,41.6609389781667,56.6417410792417,53.3600816917083,50.5815966582917,51.908343540275,56.5332792495,50.2194883403167,47.4196075935501,44.7771902535,45.5492581747917,51.5774510261501,47.295767926875,49.719194999775,40.29678505675,49.3379760448334,37.2663758239584,45.5007385722917,51.2393543954583,40.4291187107083,55.2341291739916,41.2950440907917,52.025569727475,63.1804685787917,41.8623489294583,52.8078108007084,52.424832436875,48.41639128275,60.4843782385834,47.935222502875,44.9474272012333,44.2716735599583,53.1501335600416,43.0177858927333,55.3949144261166,38.6616998554999,54.507490557625,48.0178844082417,53.43920351007,45.5664265498334,64.7876207378333,42.9726304054667,46.8398682075833,54.1678689765,61.4508434719999,23.2080781818583,43.0152521516,43.3497706187583,52.9464790599166,50.8529376263333,69.5761146055833,49.031914380075,55.8912617820834,51.2876063378833,42.89239638925,49.4424273611417,46.3621773779416,42.07163603005,42.8902118580583,49.4145947712333,50.3446372869883,54.1154742341667,49.7914583621667,46.081966663875,38.7149625932083,53.018548004825,39.1568861122,52.4007517888301,41.3668988956917,45.4217716753,38.764542447875,47.875559487955,42.1732548108583,44.5326213606333,40.075498322375,62.5444636254583,46.6505782683334,45.7430127541667,53.9577297529166,37.20327243468,41.9271729217,43.4684562271333
66.0573459163294,51.3801001031538,32.0783290826917,45.4556779147222,32.8470558369166,48.4509795327416,42.1073872544472,45.1800011088289,46.9111723739499,57.3455273813332,55.5562447193737,52.4920575340001,43.9948825428214,33.9933071992515,43.4022613408751,1e+08,82.9228542276582,45.8490552814529,57.2471225299638,28.2076347121272,42.0453164787962,71.7239365924821,56.1391197867904,52.3643798241332,48.1852131439166,43.243972287848,15.166400165875,63.3424584918416,69.9821770864165,45.0737937470617,52.6211883852638,68.8189454569249,41.6687230952666,42.1040038886833,59.6676883935665,33.6713535475183,47.7191621448107,43.002879576666,47.1330801366748,54.7725593904945,44.3334438756966,49.3696127045999,56.2434005555067,54.0567335263713,39.114111367881,45.1152801044999,39.4601054815599,23.3639942682839,33.2432737592243,37.7205771604083,41.3704325057651,55.2445475120417,51.4212715671751,32.5400733021767,42.3431418099709,46.7443766646179,53.2545266010444,41.8941283883777,62.7086975568601,35.0008380106346,31.1389436669052,71.3038536207831,37.9060414389748,52.9994475928084,31.6315631025619,26.5937175241499,46.4316529306999,34.96069249145,44.6332247467666,34.6731816489,30.20423222765,44.42122125284,50.6422706172833,40.8994283400833,52.4788285091814,45.3122584057832,28.9084809820167,22.5962794560333,34.858913740775,29.0548957606857,54.9362451292166,46.4563937730666,44.6626558149972,55.8224342656372,36.6271912507248,44.7416641357967,46.7464749277361,43.9442336026405,52.7494203737915,27.0009766427916,45.3804601938247,33.2543266778167,44.1932454674571,19.3215594309449,45.6939337819293,56.9567482616869,37.8030017906904,61.3259749309998,32.7613552565915,65.7613397714197,40.932045838775,32.7983695607667,45.5222357023667,24.6356844699,42.8090636704332,40.2384650936916,37.461978599,29.98139707415,35.3387200125083,27.2726679471834,36.9757666775416,43.0769329852667,64.3798824358983,35.047189429525,44.402334420275,28.7601872977666,39.9740379439001,30.4883222862916,24.590467683825,40.237725834025,30.1134256127916,40.1162962321833,34.2330969393499,39.4679606330501,56.4088208065084,48.0959924245,34.0112007325667,29.09324710745,41.6548992363917,39.5840614340417,31.3604738861333,39.9128283135666,27.8438563845583,36.416721546725,37.4066646457083,35.9823778716417,32.95961130015,23.6602401040667,28.4255319852001,28.7056279576834,39.5442347277583,51.6451908407166,26.0769548857917,36.028125538425,40.7677196491416,35.8441844227749,41.1262499458167,35.671109277575,32.4389241985666,46.4664953044167,37.3763865214417,39.9286643334417,42.0834286490918,25.4170440000833,45.3900905957918,34.0941694459,37.4365156578783,40.9597318856583,53.8964104615001,27.6490696950001,32.098398486025,44.0299248771416,47.154989180075,41.5599802034333,40.04082348435,43.4929796425001,40.7178137286501,33.328623562225,50.171789114,35.1009659517166,38.5521406939584,39.1047144718667,30.1934664553917,39.0734832241584,35.1678902703499,31.4497633031,31.3965970132584,38.6204215229,37.442863438555,45.1075871427249,35.4678674211666,29.311725225125,36.9242380188083,39.3512347909417,32.4392900669834,33.0064348551717,38.7988190802751,40.1439634189,24.3426578198666,36.6656720638467,27.494118125575,32.7729347885001,34.7045427494416,49.1128235293251,47.4012346803333,34.5156799595334,41.9253340635333,28.94992718962,25.788392099525,33.4001677573833
57.7060148663083,62.7591631491402,86.480773312107,69.8139401515654,88.227072413532,74.1487713310714,65.0057164908254,71.2861664304488,104.654904479483,69.7425739729843,84.1472518729524,68.189013838488,71.6836604701616,99.0382493660067,68.4139036939404,82.9228542276582,1e+08,80.3319248611197,59.7201178005771,104.788818377214,69.9815154324745,61.940690183357,64.569392665494,68.3136165558618,66.0251610087143,77.7097654512871,96.0476955111018,54.9522406378867,27.2900400655674,98.8973967021844,72.7090510314365,65.6010513782999,85.54433782,68.5390233119464,68.7658458377737,96.8280910104147,81.2985929776179,68.2841079955788,48.4126347392599,95.4482364233586,101.67103745684,84.0158322420279,92.3815572138008,53.8203758538527,70.6655001588211,86.5011056965831,89.2715402605798,60.5274259280943,97.801785962218,71.1646703610867,89.1175991765211,79.4351749377588,96.167139110835,98.3939470752097,82.5487593612416,95.1844799519197,73.7612731843546,102.755054120875,58.361611324357,80.4556883854781,86.0676382841244,50.1003522888035,76.7140908187162,91.5611319198216,99.1721569381503,109.202736454164,94.0458463033963,98.8849006674374,90.3714704878888,82.1713345879999,85.1033167268749,78.3817038344307,103.077730821764,85.6640993001904,70.4267330844643,66.4334717495091,65.3750262915476,95.1856913829283,91.0215973799227,98.2981101388496,52.1852774623214,92.6302058809665,68.2413159038102,76.0564555742624,71.2081646502018,105.054741969961,82.6063020022908,109.970627651226,60.0503076629642,92.6196440375447,67.6755551707445,97.4666552038071,90.7483842280278,86.3475152850972,53.4003963723215,84.9042940510238,70.6024375493429,63.6108145312767,61.0000104046892,57.3116944991261,71.0017810439018,58.3326580352608,49.4315465113322,72.4300617626428,52.826983233875,60.0427931797999,47.4210630518214,60.6395287957143,76.2367788917053,69.3445228458303,79.6207048334375,43.290178494966,32.1053129069631,46.4498214490179,67.6229674408607,54.6437016250446,58.4011549423071,44.2553415404911,50.6268920332589,64.4580576515268,61.7317177174678,73.5838910010715,47.8264740015803,65.1210430312214,84.93671801625,47.7030622827125,49.312914107791,50.2165682673304,76.528715852259,57.1818883571714,54.5630486799643,58.5523912416679,63.5140785512052,76.2090672869732,47.3841347509108,62.9687019180804,49.9003079727589,60.9230548714732,64.2289817675838,65.5619457073302,67.9060833274393,24.73970045175,62.5890095352054,68.6839227898214,61.4163829110536,59.7600960722499,63.9442378125089,47.38071060675,67.2113408185695,61.56347767025,80.8084692419553,73.7791599544982,63.8229957116304,60.3915924159196,41.8434161139732,74.7256550415697,72.6191353760986,52.4197030924018,28.9401779110715,70.7571909360303,52.8836188644286,58.8394667650803,52.473601266134,59.603142540534,58.3340556660518,49.4951919282554,59.8070360680803,46.8021294066429,80.5677831935179,61.5289230313428,84.2235118209374,67.6191684475482,70.2487742156607,90.2981040593143,50.7021683110161,78.0616121867805,68.8534959101447,56.7273914234786,61.8626184037264,67.5949176870893,80.6500228270892,52.777207640116,47.1674018422233,65.1707145525786,71.5442493097731,56.7384641276808,73.2101877174445,48.6358799111572,61.1359417274286,58.1048977968569,79.1731855725608,48.2249278209517,67.0017035474731,72.0892867473929,54.9194020962232,78.305890762375,85.4815290384374,80.6136290325075,64.6578821474588,66.3774562495054
45.2955239558597,42.1149891779732,30.3628278964995,47.0536118416385,32.4721103580832,48.0318337202485,40.0009776934569,34.4766636965366,35.4672766893433,67.6777736919439,12.7900748272653,35.7106672734614,34.2242120426168,37.7503429149337,62.4255452296494,45.8490552814529,80.3319248611197,1e+08,43.5849195503856,38.4442123148425,46.1879016932128,54.0902727782206,50.4811759537121,33.8155663668576,43.5291125231713,32.6073126050258,44.3821532150551,48.1690497539974,57.4119556768933,29.1892878494359,28.0747944403631,45.4952914568211,27.2609338032337,25.1515140164774,24.8711837094122,40.9426905348721,29.882159051692,37.5601037762488,40.1763470547147,50.4901516620922,49.8979402614079,30.5878432383924,34.094018681389,40.7639489257159,32.2005112230507,26.7874962362432,33.6441798265903,45.2440841333894,38.8313493380488,44.1483537069041,24.0649061482087,37.7789626318027,46.9957022044067,41.8504175228618,26.4444908698308,37.2787880962144,21.8096374426131,38.1073550771411,47.1519529579348,25.9556400339044,42.95022988439,61.1401417326353,24.9015176242614,29.9641944610147,41.2377291008675,40.4526615624918,25.820851544548,42.1994055230531,28.6272358106703,31.8517443581766,32.3166846014473,24.7007469715424,35.4232938251859,55.4190068705537,25.4103142965092,31.9230170791501,22.0257059414155,37.2128771841607,32.4677811037237,35.801486631171,45.8208354276194,31.3062608547908,29.4919534869517,21.0771400722422,31.929155008412,45.793701888382,32.3733840642294,45.8466537048234,40.7385717299109,45.1668936734546,28.7086050288675,37.3525179349587,34.9971074200972,42.5705300636921,29.7717186544782,35.5209762555593,43.6662036895218,23.6681156504849,35.3279075057565,29.880352398714,42.7950498398424,37.4904390053667,44.8261272938904,42.4800171960979,53.4005139967867,40.0276609554319,39.1391327751047,35.6524941723497,38.1563072747867,48.2210628736808,43.9717604913994,39.4828010432477,56.4249051293231,49.1165881708316,62.2157287326223,45.1293387877776,35.1932130437112,35.876372012172,33.4961748409545,37.5129597318057,39.1198504786137,43.8812720837736,35.0109228204402,37.3353330555465,57.2406986813777,40.6642047446741,43.7872719724132,40.1024140307988,33.3205855193921,35.442966947919,38.2756006926286,41.2231673619682,47.9042293716751,42.3117500690089,40.4225975224238,39.3142590443582,38.7531192686904,37.5858384803439,47.6733891495643,43.8236313323693,45.796968555335,41.1456216588068,36.4973090114666,42.5024400247328,42.0444444452381,41.1812664636364,46.8780027668524,37.6590444785825,41.2417097194153,34.5670977895207,44.2049155752285,32.6206273577492,47.0599097605784,38.979839716846,48.4882623139954,40.5322735410274,42.534745071546,46.5458751937502,53.9014964323069,44.0490609118963,36.9268979386983,42.7963050764803,36.6834650323911,38.58434384815,50.2719762614578,42.258996874783,37.7915131710777,36.3052900125687,59.3014656982174,41.9722654925493,48.9051267600878,38.7448070730317,40.3006117148302,40.359765504044,33.3410287816471,43.7496331956446,38.7843406775031,38.1688014033799,39.4836491121325,42.766246817718,45.3105736525645,38.0995915417921,45.4163579670825,41.9759430972746,44.2030486891195,39.615366616458,37.4283911365099,43.932400034527,37.8282209351064,36.5884160399346,40.1558736846634,37.8562181876502,46.844131956082,51.5881590959413,48.6616291010186,40.1774803064841,42.4064548874201,42.0340746782644,33.036080612456,40.7492753440835
24.0586943652013,11.1345817144749,36.7554998388761,31.0104110842954,39.275244846709,25.9030358311408,45.1055409408958,24.1699227831515,68.2642727144836,56.0642338836262,48.263267293432,12.7956872914697,34.6170084239138,57.1889172767102,63.0944234712498,57.2471225299638,59.7201178005771,43.5849195503856,1e+08,65.2943223064905,50.378250169457,37.8434637283539,52.6232692430733,15.0988150642197,29.8590105130605,58.5183970994854,58.0011510627022,24.9259165793257,37.4901170722449,61.4087737609013,31.5569465192143,59.1214946144791,29.3619652937215,35.1021341515075,31.0866311143834,47.9038920705601,36.4803562001075,29.392170337697,55.2215043160458,52.1266407303827,60.2184171336116,34.6019202456698,42.682704957423,45.8371934794942,30.7847060000944,34.6331240520379,43.8537056399544,47.2782878607513,47.9320614341735,39.6204285682569,33.3537574295852,58.4705368429657,49.6335360120508,49.2023230826632,33.0574814093254,45.8711282969893,45.7375402245909,49.2051211406356,38.5461383036225,31.5403233609507,30.5840382831666,37.5383801549469,36.7773288820644,41.7894124399034,48.3992767271836,55.2727856253245,35.3634466399421,50.441601797284,38.2799723873851,32.8356875200965,38.2510060090169,34.1835590818655,47.5150911170909,55.6127551855039,34.028152772056,32.593365512062,30.0843040377576,54.5323508588182,42.6208687094544,48.1452847101716,36.1534366058807,38.7638092809614,38.1730813845818,37.8903211252169,44.0937849930541,52.4306659851868,40.9280214828566,53.1004708090087,29.8328561720302,51.7445079155623,47.0714568804223,45.8545134527216,42.9902003450032,56.9514421748011,23.463433154365,52.5557662570192,36.4941701152795,24.6479325678143,33.3014965754318,27.9742278434685,45.6719804361364,38.5540741830375,23.5955396314738,39.0366985240057,40.2276675098125,41.597731423533,31.866663014142,38.7087960718636,46.8436795323409,31.3690329450454,52.5824828309546,42.8309538347295,79.9491254589344,25.9790886841534,35.3884317208035,28.9934425709318,40.5482937642341,30.5059668007954,32.8367960485568,47.8007630987102,70.8689255260011,45.6577679531932,38.0833591570511,42.8242095724568,65.7972415491648,52.489472356758,23.5422464930921,32.4392095582682,55.0399751666249,41.1390717730432,37.9893985572216,43.5697153196898,27.61367577925,52.5123027596421,43.6011346075114,34.8619230776307,36.0884403434432,37.1544042719432,59.8802499053591,29.4720249726136,43.7330797040829,40.1005148230512,39.0105369764716,45.6680981764431,44.7293184308296,43.2026634458466,47.6462477868523,30.2755400405228,41.5520697069398,50.110342963108,44.8962303885056,68.9733281158501,29.8092780090443,28.1482564733636,53.7611181850796,44.4349680293602,42.8498595795711,25.3299618896534,54.8694712066193,28.5089339295182,48.0793267662557,42.3298596701023,48.0548491416364,38.5034318884512,24.1736790419909,26.4573854971523,40.2704287344886,32.3605204308068,56.0508000994773,43.5969703779556,49.6930309612784,46.9057281826898,43.7637707139091,53.8442854901795,37.3993163914852,42.4312320088693,41.2255723580716,31.9311592634409,42.7081673225641,47.2969605063523,46.971648278875,22.5763381383523,38.7255573097955,45.0132194690932,28.7282085961546,26.4607490166846,43.7220275179114,23.1769968574557,30.3653337913978,37.3701838694436,43.7626550907011,53.4022850410295,28.8997583716818,50.4328057658069,27.7755522775682,45.5395420720171,51.5393549222444,34.0296955523598,49.4946277171261,42.6011835175727
55.5973003468151,51.4637965087575,41.2082853203629,48.5677873747225,19.3144771159863,40.6425008053743,50.2608639022138,45.2482539231319,35.4105372068825,69.9278822808987,33.66251976221,58.3127570222667,32.3356103465823,18.2737895253667,57.0489977227515,28.2076347121272,104.788818377214,38.4442123148425,65.2943223064905,1e+08,49.5489540911244,82.8807444161723,56.5494426259691,54.7572350443205,57.5355987557643,29.0178399481948,30.2802215037264,70.0517706028038,92.8012286562422,22.4056989106518,36.7322525509859,61.6093071269201,36.1019807408091,34.8120607237651,38.7770960853676,21.4661208170307,36.6549659369172,43.5883200837485,58.5030925664727,43.0306249954752,27.4660759989991,33.5466799743389,43.7421362677835,53.2965758967638,45.8776216307007,39.3681109501999,26.4831936273679,52.9379369683527,29.4589338355419,51.0419975854739,34.9213978393568,36.1026060415889,37.5675986675901,21.712755753157,29.8980528148147,38.8846503914498,38.2468226763883,28.5377357026606,60.3695427387853,33.1466815431894,35.9200427041568,67.2017360363743,31.8489195745295,39.0634182072855,31.6876680062484,24.5116427180575,29.7929300945745,19.3209104932811,34.788671544008,35.3854632744272,26.7914935140938,29.8917522832518,35.1755732995287,34.7423024804317,33.4312113262129,45.060829128839,35.2331980321864,29.7531788275225,27.1199450339712,21.0297322989319,60.6254160704438,39.4579831884424,40.5340327452384,35.2430956351571,30.439746409806,32.0126369402639,35.3190621924732,36.7052964674902,51.4512492135606,33.3994179127638,49.3768303585526,32.8261838731136,28.8166590643269,24.932630464155,54.715919401981,40.3693660594901,44.0805571702362,46.7186865229061,42.6279921305727,53.7786888142451,39.7387111357318,37.0016562520727,50.4692038462363,35.8367182786227,57.6136225923682,38.6953760863349,43.7821968101106,33.8673433507833,36.577971444347,40.1110488825272,35.333782644597,50.7545491418939,76.1712776420143,49.133630443644,60.0065571203335,44.2085322391606,35.3505017222076,39.0107443265485,34.2073795858818,45.3321447851879,29.9452183908333,36.9516620081925,35.0528551132091,37.6049993970411,61.3791422583605,53.2290345719333,44.544672915097,41.1688316763106,43.174880646559,34.6668095669242,39.4393421399894,43.7881186722848,38.7616663667727,35.0949944395075,46.1907397500136,32.5348484602334,34.2232706742319,34.8513038324015,33.8800764823879,39.6950625459697,38.4839578178895,66.732990738194,28.2649221966273,35.5467665657985,39.6431262187712,32.2180602748181,39.8699639521834,37.507184023091,34.9783567392348,47.3282996612818,37.6522381277894,31.6720112155167,45.3884980253773,41.437749481356,59.3954984455228,30.8504871955061,33.459273502264,47.8298897696651,72.3804453724517,38.1009636268666,38.2107862303985,44.8914161757167,48.2339127987516,43.9924891554667,48.4085105117894,52.0325807222682,40.9628504549651,42.4263172742243,47.9507981222666,31.4581440066621,37.5668390411425,36.9715256673561,34.2611377179409,34.1317036903349,37.8777635494,31.5772644751954,36.257279658594,38.4152474271787,35.7662981852673,38.5617824809774,36.7315339185061,40.9655845549046,50.799832887303,37.2268551808318,39.4218863655015,39.9639354674588,28.7540758517151,43.5766091921832,36.7372081581425,35.9487589593634,32.2607709696636,37.8300869701031,41.4689606115228,47.9532146290803,47.9320416787045,34.0913748415197,38.6494691687288,31.9574261946891,29.0832419121591,35.5526216571954
51.9892435897162,48.5655364630556,34.3978105420011,45.217507380235,43.5096576991783,49.0991298699363,35.6525073672728,41.5756931914628,62.1948054958249,35.4863275748857,44.2219751045989,48.3456605294518,33.2506164381803,58.6976277992413,49.2514103221757,42.0453164787962,69.9815154324745,46.1879016932128,50.378250169457,49.5489540911244,1e+08,68.7695980163735,65.4755807916747,49.9589684914352,51.1658658340289,43.6883369920608,44.0612951339413,54.7377057434628,57.2209404394116,48.5807421422604,47.4489763982123,63.7394609862354,61.7134701972141,49.5881104131435,52.1244899295532,51.2360282990387,45.7803366138967,35.7100636070172,32.9522581958628,74.0883293980374,71.2758017548234,53.7554917575945,75.8400949580087,38.0896331910484,34.6162777396683,53.6982318988877,48.0606095688228,36.1472594759646,43.1648021842512,50.5659284228071,53.9135981520818,51.3773525369797,68.5801183499867,48.9804715097516,43.3027608930919,65.3188155676533,49.1447980833281,62.5590828550028,35.5367588325503,50.9201146553961,37.1246094417043,70.2444324883717,42.1914094420497,64.4036027421515,65.9717832352602,51.8392200453571,49.7859087570676,56.0353837234749,51.8705043503169,50.8487888763711,52.7094629220795,43.3053224238028,70.2684690322917,57.4929676039722,46.3318358955889,56.5803538025704,39.2419207154673,45.8229414330084,53.2909334155628,59.8577371048892,58.3984946943914,54.105179507089,52.3924862135142,48.1631278027771,30.592980543298,68.4396066829775,44.530174176084,75.5110097860105,46.6087192762262,32.4901805308635,51.9697205314922,55.2052436902308,50.5556683634756,43.2005468660848,46.6568183660851,62.7138654671191,53.3349941053534,55.5989506173913,31.2470862516993,69.2299021398111,58.5550543559005,50.9728387440435,31.9255045086013,46.9751393353935,40.0559208327243,53.1612382449629,37.5382653868135,42.861991429991,55.1264393076025,41.5427077516416,61.0831119203032,30.5179303577635,65.5965526424068,41.3427141701128,66.1421267473249,40.3741534254301,50.7083568757796,34.4054723338783,39.383163427661,49.9635046888467,52.2704901176391,57.5513469914847,43.0666244522762,53.2093714696667,60.9000147132778,39.5174121011365,43.6367938188467,34.224359390175,63.6291114573347,53.0711289206776,47.5489966329096,53.9739683715924,43.6461858600277,58.1302813012871,30.4553877704141,50.6013265980116,46.7056024993885,41.4243547362943,53.6175583750001,41.388888545027,57.4246708698904,35.678517922423,44.2714783404212,52.7433368700269,52.2243802817334,49.5645685747916,61.4407772653334,36.4892803927282,48.8766360271244,48.5220717460071,58.1286806870949,56.0090243712236,53.3168326727058,41.3954655656334,37.0797892015776,57.7467609024409,55.0517817320418,44.2010695024923,35.3323250327988,44.0581706526078,38.7442538744853,56.8045953230865,59.9704790469501,45.7207491451399,46.8762390134499,46.5009409382704,57.5046403912802,36.4014441059095,75.4749937769007,52.4189369350525,63.1332540376795,52.5919957891314,52.4455732233039,61.4668085705866,46.9942062096262,50.8630327947827,50.6457511774987,46.168888638575,53.7335242725551,60.9101534489961,61.1263234480499,39.5398629090583,27.1389240612032,52.1305007863872,47.1953574051833,42.3447258328699,55.0931911460038,39.0879147227757,41.6788495157738,50.1352765571698,50.6227955451826,42.8501021499007,44.1372864458641,65.3675431248186,50.933975252693,53.1235904131672,64.0180253805255,48.0943016441282,51.0707342993512,49.5459105890858
33.287639426568,44.2856839882912,58.8500087802201,36.4607093554524,51.7422427966356,48.695912150719,48.6650005162004,29.0464457741524,82.7093265711391,57.3968865681666,62.6544067282857,32.138846219119,50.5163974626238,78.7815675502208,70.7573282168273,71.7239365924821,61.940690183357,54.0902727782206,37.8434637283539,82.8807444161723,68.7695980163735,1e+08,34.4218034194405,25.9627912454809,26.6936483375476,83.6973715131956,69.3468038105912,31.9820809935476,47.6882253482698,71.9176355162379,39.3253646895315,55.7528011918356,44.7826309124856,40.1658287889642,48.1658021202618,66.4746996546657,42.6571997283356,44.9865891454312,55.4304268006976,55.0504222578492,63.52862791328,48.8150742752301,37.7239193559567,46.6897535885779,44.5093080872857,46.6342996683571,64.8139885354389,62.3029811418615,62.6610392484366,57.8687013668642,46.0094462809902,62.6113835768392,55.2630641308244,66.3327712151924,43.8612209652191,43.7588263695928,45.319192922458,51.2943117736348,26.9660613948571,39.8986320689636,46.6827270730849,36.245188174869,42.647860461737,44.3944642715536,67.429017205099,64.3630769732739,54.9979575838357,68.0748160162858,48.9221601227579,48.5816052445357,58.5158958712024,45.2995092872373,39.4105764102214,56.9773952396189,43.5221471320178,52.8706918479144,40.1166270007024,70.4940591562141,59.0456259481815,64.0801614175998,27.1748925846428,49.4282369264856,45.3277032928031,53.5868239655419,59.0092741972192,57.8469063656134,57.1691769370911,49.03958370525,35.8071392925475,67.0499149238705,61.085621904941,56.9334499750821,50.7296536515635,72.0966738343181,28.402746171772,38.139452581706,41.4911797023737,23.4997968970893,42.9820415851524,31.9968758460124,53.3415914958571,45.6014248361,33.2652946204715,49.6089420947142,47.8099770517857,48.6819651683714,31.0014516825,46.4885612838571,50.5540586649286,42.7189415195,53.9670032632143,46.8049219049,81.1190561138329,38.3981374722143,38.9139032892,41.6468938135714,54.2379576449143,40.399211348,41.4130142725,50.0177410909286,69.7923695399857,55.9340760933571,39.2866684730714,48.0659657367572,62.4417487984286,48.3252424511857,34.4686543030571,36.0046901356285,59.2166837723571,43.4839102471,49.0821820494286,47.1788584391857,39.8581103445,61.1135004342143,48.1793818899286,36.5815737303572,38.9598236465715,45.6854347074286,63.6527661111644,42.8870750695714,53.5259477431714,44.4659901616429,44.5821398727858,52.5922120593571,51.1970560515714,52.5800980775001,51.1853646672857,31.7707708603571,50.9813831432571,55.974524045,53.4860397745715,68.8895077828286,29.0209273453,41.2547291627143,47.1902684987857,48.0539520830428,55.3804469746843,38.6110231159999,52.7970504321428,43.7663631224143,58.5432831322857,47.687085951,45.4118225372143,42.0377344086856,41.9155947131857,36.4363337333714,43.4017825055714,35.5884313260714,46.4872013386429,50.4131898034857,52.2960123175714,48.0286273036857,50.181270665,56.7267117127428,43.2370683855429,51.9758991640357,48.9532869316715,39.2123655077429,52.5728386267443,47.5824239923572,53.2285912399287,35.5411854919285,46.2935236105001,55.0109675955143,40.2254413440571,39.2364310560157,47.2360614455428,33.0696519127714,42.8051192255714,45.6769337210443,48.3279081411143,58.3112182035857,39.3599423478572,46.3685364264286,26.6654232262857,56.9731568093572,49.3911085449286,43.6595144516771,52.7055673597714,42.5026713543714
44.5058895779204,59.9495714186126,58.0723973229465,41.5938906326408,52.6837357985797,60.1405432772548,42.3776763396608,34.6871623637256,51.716930142407,58.1347728983748,54.5888235507399,46.9217713768213,56.1344404835297,62.4985022977322,57.0651367500534,56.1391197867904,64.569392665494,50.4811759537121,52.6232692430733,56.5494426259691,65.4755807916747,34.4218034194405,1e+08,41.0192834208358,33.8440038720773,57.6685557551971,50.5928411809865,36.8915525814107,51.505928486994,46.4907362143035,38.1564732187366,44.6392770588523,45.9145462811048,37.9799760558274,49.0391432319404,55.6727123841055,38.6473183598786,44.2220689364409,39.1934754688525,56.8081368030212,56.9975026303913,50.3497089462241,40.3672011134881,43.1920515197742,44.6104169794524,49.3186529261071,63.5757349745798,63.8380114077417,53.8784323148084,67.3357821113408,44.194257986632,35.0350336649523,53.8081648310966,54.8555334119248,43.7872063711548,34.8971736580137,41.0705730052047,44.0270394436269,26.1105272712887,40.1919495122435,38.8922745412078,54.920642869244,36.9767572581797,39.572409093488,62.2117433376944,46.5855140321072,60.3358172654881,55.9290422601651,42.9458625624046,42.1333255175713,58.025575005113,48.2114788666105,36.3946003796404,50.7542841579464,43.3015623279835,52.4146276167107,42.1776487483215,54.626520904881,57.9498496025505,55.6734878060523,23.1781850076667,44.2368640372714,39.5191522442246,46.4852535815856,36.3353484239631,58.6336361025542,37.4736170152797,53.4265080927381,35.0919089925357,55.6880584121607,49.6739600058691,51.3098137770403,44.6593235322718,66.5347781612787,38.2755274804075,26.7825080089714,33.3980668404547,32.9807303308482,42.5611148741131,36.3106628540781,41.2136172490119,37.8223083735167,28.251015414225,37.7149773285417,50.3927500270357,38.7020807041988,24.0946999031191,41.3758839250714,33.7056401843274,39.9418560617619,42.9881369213036,41.523662065756,57.2592708159161,38.9376379798334,45.1697432644715,41.0486178273572,38.9735875540511,37.746147951256,36.2695424242262,44.1173351356845,38.58783359695,38.6823574655655,32.9673445249048,37.5511020119714,54.0310629901071,47.2437282127036,34.6635540010584,35.0887715350036,45.2916014313809,36.8673077612251,42.1270265715,37.2127356670072,43.7298502976547,41.9193582334702,38.0360080193333,29.2225840487738,36.1101377193929,38.3904884095655,32.096475580069,44.3544839977858,44.9976947354036,49.1868330547559,34.1409769206607,41.00948093225,38.5260235944583,39.9521509073751,41.4976560649285,35.1950659339048,42.4871790536797,36.0555807826131,44.129449233625,45.5664631145012,49.0105226356512,42.139378847,48.6932640305119,38.2967439398988,43.683911689395,43.8452564699524,51.5691242632857,41.551561571944,37.2261954163631,42.0994309382917,36.0052005126131,41.1572923883822,48.0864296739655,33.6888743117524,35.876457449506,32.3326263662381,53.3838626733869,40.666878151081,44.4384792543094,35.7224624432535,35.9104150330178,40.7927583650881,35.94295171215,36.3102198519476,34.933309855594,30.7839572113428,40.4409997721967,38.6339158145298,41.3559104726191,40.653927362119,39.2800036883512,45.3016924129167,39.316595951706,34.4539598638971,39.3908001695727,33.3154209646929,40.190044623375,39.7606567207467,39.1344327988702,37.2973514921393,38.2407703159882,44.4637850501726,36.5773064673393,42.1271188511071,39.1761218172916,39.3115086575165,33.8147502702655,36.4676412319727
23.2623980704558,16.9270729907385,35.7404630622107,21.1197862164083,32.454328046525,23.126937401575,37.161838320425,14.2581838358583,64.8433872643417,53.500135319236,40.2524563725286,9.35760327733333,22.9973473940893,52.786609328688,55.1425802466333,52.3643798241332,68.3136165558618,33.8155663668576,15.0988150642197,54.7572350443205,49.9589684914352,25.9627912454809,41.0192834208358,1e+08,20.4542503058667,44.8344689388043,51.6898588573877,18.9376612071333,39.43772168505,50.6891389956024,24.89719496606,46.2922215676011,25.4764977536667,22.1257276173167,32.1653070161142,42.9618695124358,30.2007745485762,27.6071539539182,47.4301268994667,39.5108676152444,46.5002262438483,25.1983722645444,30.0974942960333,38.8133505418317,21.3617060610524,28.8772891652666,38.4269030588867,48.7227856633405,43.4003198178266,39.3019804545486,28.2123160720303,42.7861858695542,36.6046510309919,43.6499859433466,24.9913110302167,34.7761330649059,32.8413150227833,39.7732490429111,24.2148223497142,26.2331359188958,25.4361200159758,36.2361740443166,22.6639605688133,35.3490494168583,48.4740893906748,51.0357039926833,28.3231613811999,45.464311474,32.2728731668777,29.9247735951667,35.2228914888998,28.7598050880346,37.7490532565167,44.3041505907582,27.9076905840774,30.734113967275,25.9701386154249,41.263842670681,38.7529254542791,44.4437546015333,24.3292918178999,34.6229410349167,26.6406133438666,34.3073151074824,38.9899967498,41.8599981688678,34.4031748052889,42.8179257643488,18.6121991041667,39.4663049860708,46.9628524608136,40.95172002225,29.4312913844492,49.4621744196144,14.2037692312782,37.243916651588,25.8023551966095,14.151051487325,28.6450640181667,26.2643506991533,44.7477459800583,37.7629525261666,25.1744216415,37.3456279744167,37.780054722925,39.4435526210667,26.9469263009333,32.9383690127666,43.6935882965,28.2522240913917,46.6987318819083,41.5578059985333,82.9275304161732,26.91318986975,33.039338337975,29.06688050385,39.8879415834749,26.4285886220583,30.6020841877666,45.7121344270167,62.6745556686249,47.8024054628334,36.913860682125,41.7968892307751,64.1289965839416,50.7449979412583,23.3547249265417,28.0755305523417,46.0735474159499,40.3104470099333,35.9174071661084,42.96486472355,28.6187090859,52.5653069305,42.0166839634,29.7522613426083,36.804172184025,30.5290200551917,57.1643331607584,26.3493124995083,44.3079229849833,41.639585288075,32.2581793151416,42.6091358947917,45.4671538135583,43.5377073678749,47.0312427760333,26.0194504945,43.3815115939084,52.0696437806084,43.393031347,63.26287516445,30.1230562362917,26.7403158864917,56.4065227934251,40.0369184612167,45.2161931416366,27.1244453349583,58.5134798782417,27.8761874730833,44.2255518195834,42.3631732618917,44.4711732306333,30.3688591763667,27.9297183212333,27.4408806862,36.59213148095,28.7308261902666,53.973198771025,44.8614040301416,47.1280076821333,42.1867608251916,40.488718445175,49.6976140297751,35.63485563915,37.3201693163666,38.74113758325,30.7633712257583,41.986428732555,44.5677587472,45.3590820045501,23.9502059235667,37.20228716775,45.1297263705251,25.9621795173083,29.680628438005,39.4826865865,26.230669622275,28.3133961599583,36.0300775572966,38.0707109586167,54.8956662193751,25.2910600848417,47.3419167370167,26.6074881475084,43.2658175382166,47.7704272382666,29.0055227923116,44.665377088125,33.0249870049917
22.7285662879063,30.807172453218,46.450886921113,11.4335070012778,28.5378390620167,28.8627096435334,35.5802029793054,18.3451022176666,66.694047428275,46.057482096889,51.5555862566846,28.7062029193332,29.0604684559988,55.3594025403636,55.1280856199999,48.1852131439166,66.0251610087143,43.5291125231713,29.8590105130605,57.5355987557643,51.1658658340289,26.6936483375476,33.8440038720773,20.4542503058667,1e+08,53.486058866131,48.56283569265,26.9170903861667,41.8727212318473,51.2461481600712,31.345041376581,47.7190899626345,35.1702691827917,33.3749007815833,45.4782407551845,41.5731796416578,34.966691723044,33.5236072177424,39.2596482347333,42.9835171447944,43.2189602053379,33.015092161486,37.5022041972549,34.0049123916742,29.6974115198154,30.9323878341667,45.6480219743616,49.9177689862562,40.57327125581,52.2976321631559,31.901073411144,47.0460785694375,39.2230447461042,41.8299668637708,34.2869912741791,41.5872189472953,35.6221294737721,32.3844886544305,22.0466187169344,31.3158744294612,26.5886182991629,42.1170506414166,26.6528845863787,38.5961479272084,59.2690023163194,44.4316506515082,41.9051435274248,43.4995744546666,37.5284036211388,32.0722827930417,42.5245179754582,33.155337308271,39.0487580896166,36.0540914548332,39.502953636482,44.884902584825,30.7459004124166,46.9245050386903,41.2787520136459,41.5593419855749,20.1105428390416,36.0237365072833,38.2042741993777,45.1912947128395,42.2429356685082,42.3243756463039,41.7128830996805,35.5698178882262,25.4951345015,42.7340738276353,53.3810227069052,37.5750560422834,29.4521433178431,51.419547276825,20.0894945751121,32.0316044960892,19.7899493010107,24.42472186625,31.3165416415333,32.5100331223699,46.1413125151667,40.7492094843917,25.2503871019834,37.8806454770417,38.2552666035001,42.2665040415916,28.8009525308333,36.1805510979584,41.782687413375,27.6044476102916,48.27666857725,40.9309568231916,78.0552076021484,29.7822590345833,30.0611632293667,31.29768208925,43.9895941491583,29.4115965382916,31.6648330125,48.4951964985417,52.6741844527833,49.8693975120417,32.226824524375,42.8220101161084,62.64559217425,52.8856947202333,26.9571637431584,25.4250424355334,47.0744998760833,40.4983778040999,38.0592905761667,43.3986815979833,29.5285191380834,49.5941835538749,42.3804397196667,28.3036964555833,31.7038382976666,31.451383403625,51.8533062798667,28.7294562800416,43.97834740485,42.8757747023333,31.8901408787084,42.6382083921666,43.85655946075,43.72094246775,46.0591515080417,25.8497050041667,37.859611214275,52.5698488148334,44.4794275169167,57.4171191297333,32.5816217022583,29.2034962697917,52.6331844561666,38.9562043908167,47.1930738725533,28.97841052375,53.3380584894583,29.4601034547833,48.9349297131666,44.8966912247083,41.6922030950417,34.9184481443583,30.894633553025,30.0296330470917,38.73901443575,27.0220157440833,58.1317308801667,41.48677030545,46.9566131350834,39.4919288884417,41.6067157809166,43.268397794475,35.1738759417333,39.1491351444167,40.569039819725,33.7039215525583,43.1463430671133,45.672188531875,44.6477895464999,27.808926379375,39.5209557085,44.17821075815,27.1677106575749,29.7970583583134,35.7442809621916,29.355588106325,31.660618242375,34.5740396768717,38.5326688322333,54.9690547121333,26.044199851875,50.5968980481251,28.0193253457917,48.742724949,43.9911103430417,30.7968885454033,43.1263986374084,35.9327043399667
45.6217942600501,41.5885799727798,30.283414948505,48.8074471368051,30.8863160211308,44.8882130928601,32.5792661000094,46.3033175477275,36.2710957173183,60.2715869111095,30.493827823244,50.8607264827843,26.3826222445089,22.3499860000719,39.2506256593657,43.243972287848,77.7097654512871,32.6073126050258,58.5183970994854,29.0178399481948,43.6883369920608,83.6973715131956,57.6685557551971,44.8344689388043,53.486058866131,1e+08,49.0254302663633,52.5469750860005,81.05370170162,29.3971161873445,32.9935374950415,54.5938255470857,30.3713933922914,30.9564398789676,41.2375065362881,18.3584060261267,42.7833119636199,45.6082777564185,42.74261884298,36.1071661174367,25.9709558916386,25.3434318145033,39.2966698451566,48.9320208438071,39.769940837648,41.4398753580885,24.2947999004291,51.2248421362781,32.9117366629183,48.5909194837317,31.2832436546182,30.0428985305856,29.6322165301305,22.8961844675828,29.6569164244309,45.2459317031434,37.7081760398629,35.3029425227732,55.6093857638558,35.6123965110994,44.1713030272816,64.6064515042408,24.3663850748118,39.4013541481343,41.2899127141651,46.0634164555876,29.7293643870286,17.6067629466243,28.1893665423843,32.7907925878093,31.6943851652574,35.2596911893175,42.75333742044,42.3233565701712,36.2705432673786,40.8069622560252,39.0210620368733,34.7191484866214,28.7686402024666,27.5466064563529,52.464847845074,32.7741342118032,36.492076662292,41.1612216928491,32.9546984038994,36.6000541509428,32.9560458808198,40.990899487137,44.939116410047,35.7750925331718,43.6838237075974,39.8460122927485,24.9642856201223,27.4320962053429,47.2743310965253,40.6822804599015,41.1815226219967,48.4659704628091,55.3726765142922,53.9128867885704,43.5486416032021,44.7601522526572,44.0558342506221,37.9315337479157,47.0819289372736,45.5765055922213,49.1319797559079,35.1486298075122,39.0418121969214,50.8846608938723,41.7202010721793,42.3984525669006,72.3031288396592,51.921946996408,69.7594994151234,44.8804423540507,38.1648335387315,40.0731086367307,34.1695367174043,43.0323934745514,38.4734953043692,41.8536787992294,39.7451668085336,43.2479376335129,59.0978179643879,46.8677121613401,48.0999233237316,43.3295047775815,39.3677139425279,45.2121113715336,39.6991260561071,45.4262741004043,45.493715688967,39.2802660458364,40.4896286098699,42.8983114773329,44.6776699473721,35.4025859737736,41.8350331137586,47.2262100192071,44.5995171143907,55.2990467877422,33.9705488017742,40.3301339151757,46.5058041370065,42.1476731421529,52.4077947668736,45.9431751539928,40.4397915703658,40.3172354591593,45.1484841490992,36.7550122117371,60.0699524485487,45.6767742359901,53.8609403592778,42.2954399357757,42.1078076314386,51.6616387185258,62.3725488861237,49.2248641715535,39.4320748502628,50.0512855114644,49.5078774442335,29.584972787055,51.0467478465027,51.2974420605492,45.1046002879536,44.6508440075522,62.6147740451737,45.01718058249,46.8035713997365,43.891995525623,37.73698260015,43.8659165969394,39.1834925777778,39.3660474836315,37.8335016460557,46.2833165362291,42.1103631088592,48.8431334701486,42.0579204362929,46.3194314927408,43.890403420455,45.9834102351756,51.3238444035379,46.6259916754536,37.5370100210586,50.9340775338558,36.7361582868015,38.0129118381121,40.33516177193,36.2857170409958,51.6313454813723,56.9478250561094,52.9525207722907,42.7413823946428,46.8258799593729,43.2140500321336,33.8504212544514,43.5798257338585
61.5971602129127,55.831382452911,32.3885314853783,46.8063926422627,33.6334872484386,53.9488813095387,41.899911916414,41.3032540514961,43.3822751640228,58.1351935107518,47.5942704286067,52.8442860554128,41.4329912446233,46.5580702525293,54.0399574565755,15.166400165875,96.0476955111018,44.3821532150551,58.0011510627022,30.2802215037264,44.0612951339413,69.3468038105912,50.5928411809865,51.6898588573877,48.56283569265,49.0254302663633,1e+08,65.828227118928,78.1604919237288,41.3345808544906,46.1186327296561,72.1299039076674,47.3144952771022,39.9447426444083,53.2726075938497,41.2964724169396,39.3497739215635,43.2999857694265,54.8131485529709,62.2389010531323,55.8170333316012,51.4919249415523,55.9522719646413,58.5167083179909,41.1590055027423,46.32767328569,46.4721526184368,28.7545605542124,32.7747123326176,41.221051655423,40.2477148815795,52.1749256084124,57.5983597205796,41.8985045605455,39.0871993164833,47.2636682134827,49.7770646395122,36.1478413282967,59.5318655882677,33.5086584336713,28.1375124736265,70.3652758900583,34.8980717854083,48.9840202875606,43.3606909045666,17.2469080108371,40.5149962861237,46.4503565935749,45.0970514865521,36.5516733915568,41.5208434938067,37.4133794378543,43.7073731070658,49.1134950105773,46.2006317615382,44.7468452482046,29.6795678946658,24.3599983407548,44.3907051721818,41.1008368664748,53.2915429313614,49.5988634729688,41.1256921998077,48.3352102663903,35.0199987523431,50.454018569843,45.0943104660729,41.5371281716063,48.0625146326581,32.518087049163,52.6001424413223,42.1469681751522,45.2624464953022,28.8265220755023,48.418096564392,52.4696887829726,42.2521354388033,54.6512789659901,33.5774745211613,61.4215893325033,39.5670278730864,36.53750503405,45.0882683084159,29.2184495281773,46.8133896933705,42.3308798608182,37.7067863817978,29.6301423145977,35.7410735671159,28.9712768993204,36.5351260036205,45.2048780840567,77.04027534649,37.4402786837772,48.1502015170272,28.7548473866795,40.5781685109704,30.1282619163978,28.4282357034045,39.5003123865818,34.2737171963091,41.811733368809,33.2957386663637,40.0730908551046,56.5797049730659,51.5899382256658,35.8249196590658,28.6104448275363,45.0434102341978,38.5675965635318,32.4452938289227,44.4774116287589,27.3338167136477,37.4322580875182,39.3814500274273,34.9481217321114,33.6106666799296,26.6660928746159,32.5939456479159,29.2245620922477,38.862303751591,59.0034522351774,27.5903063346158,34.7531445211704,44.5594047140955,40.1525983864181,44.0374262679136,38.9985418725182,32.5168933318909,44.6936053368432,39.7305808538523,40.8799082090386,40.6274923201613,25.9168093751114,51.5946332161636,33.5756189839818,40.0076351680451,42.4468252809772,62.1661366094454,26.9692507381092,31.0888888954204,45.2863882021318,49.9828034468364,46.2814967490159,39.4365722287204,44.4671920338341,44.7127691915773,29.5092606423045,56.032222675025,37.7658854034955,40.0400141983205,38.2688470536296,31.8821114087204,36.3613255693637,34.9077647618455,28.8532859777363,31.7769356275796,35.3883589673819,40.5680883842299,46.154333108775,40.0214111656159,33.2464928753045,40.1386798627773,40.8718845125614,35.3191122422091,28.9021725849345,42.5350335028977,38.3401224232978,27.8926749518364,34.9242499036619,29.7727155204182,33.905965819,34.8759317037659,49.3088859043592,49.1969410332659,36.9634727013954,39.5789804299727,29.7810059494641,33.293887755259,34.5228609419
23.5075747956942,24.3602775457436,36.4188651429107,31.3142094806944,48.3199990204333,35.2283954368833,37.4205442919443,25.94217753155,76.6625534751,51.2077958781388,48.5202337165201,24.6289202198333,40.415623423613,65.4651639029053,47.2186882386666,63.3424584918416,54.9522406378867,48.1690497539974,24.9259165793257,70.0517706028038,54.7377057434628,31.9820809935476,36.8915525814107,18.9376612071333,26.9170903861667,52.5469750860005,65.828227118928,1e+08,36.3219347344999,71.2978802676429,38.8775839207161,50.361606961719,48.0920734509333,41.6926747124167,42.9199815151249,60.4617097587061,41.8831494912654,37.862622893203,46.1465585122312,59.8098454493334,65.2274002088749,47.1789226443751,52.8606934236917,48.3376890686703,39.2483800297619,54.2148528877501,56.5613974030149,53.6278446751796,59.4060519892336,51.7569224802248,50.0262421557765,56.9726726569167,58.6137767995418,61.0736669715616,43.1184974267917,52.8889627273917,47.0961561281722,62.130736467625,28.7769517645714,46.9528716893653,39.2980189007273,25.4622589234166,43.1802170270057,55.4429828750833,63.5466160984185,68.6747814242749,48.9407077435416,62.3397781469999,50.5831583999027,50.4635015624167,55.9090455718749,48.1053433171163,58.03125312385,50.966458237125,43.2395605277619,46.9191032011001,39.7665826327499,66.4213368569763,57.3317454186875,64.7185174949477,23.3558462992916,55.0065803319334,47.3505324002444,49.3919566255354,48.5538780749917,65.9903807365833,49.1857254838195,66.7582319343809,26.1434320175,59.9886266162707,58.1915542486315,60.7103415501833,49.2058472553749,64.3773324030742,33.0879756386507,47.1598549510487,40.3751040506714,25.007598561,41.0799906526167,35.9145917971467,56.324820338375,49.504255514725,26.4459036472334,44.5222273432917,37.140466496125,50.4744041619667,27.0089256795833,41.0954967882917,49.1776280030833,38.5204351189583,63.2265136459167,45.2775327311834,85.7375681852648,27.885796177625,32.5989673238749,35.2995908584167,51.6205156362833,30.5955058095,39.3517305674584,50.2985886378749,65.905928902275,56.490807916375,41.095762733125,52.0349261306917,67.9951131032916,53.5007806545667,29.14393611935,31.7008584552583,52.7762598966667,48.5011628367666,45.8705598108333,50.7806144836084,35.1126213658333,58.2139050775833,41.8935348588333,39.5862402561667,44.5472971209167,42.5372807425416,65.3233489992417,35.1916196709584,55.2711351438917,42.8621259780417,43.2295254807084,52.2013673715417,54.7042713872084,56.2319181306667,60.360962429125,29.6254735969583,52.4484311395251,49.4477870120834,57.9980821250001,59.5291139689333,35.47958615195,32.605338880375,54.8927972069166,53.5761283656833,55.3829030891867,29.635972520375,55.0177456702917,35.5847168824083,43.3057845738751,55.5632815677917,52.4112488616667,32.3544774124333,32.1753457539333,29.3742086829917,51.6650756440417,33.566305688375,71.7688858462084,54.4078580254084,61.230881961,51.4068661983416,48.510874147,59.84011162435,42.930664066275,47.3968292318333,46.0475238775583,37.7563644274417,53.6512917114883,56.0901507239583,57.4771691967083,30.6681766315834,42.080641383375,57.2462743793917,33.0953643178083,36.676586058715,49.3545753287333,25.50961879435,34.395935609,45.6479334578717,52.0331304880667,50.0980479822,33.8952180613333,62.0209074507499,28.0163314009167,55.9459881690834,58.331278522625,37.908877346955,52.5299931095334,42.8813279353416
34.9021088781681,34.873092662968,68.7701814808372,47.5885256959721,60.6478203153223,50.1985049277834,58.3165914429166,44.1510173481388,94.1119224927943,66.3116294740973,64.251538045502,43.5126592144999,50.4879675483572,89.197111771924,76.0092182086527,69.9821770864165,27.2900400655674,57.4119556768933,37.4901170722449,92.8012286562422,57.2209404394116,47.6882253482698,51.505928486994,39.43772168505,41.8727212318473,81.05370170162,78.1604919237288,36.3219347344999,1e+08,79.6260084532024,46.0902462388609,46.5378162532365,59.2519920547388,41.0050841211527,49.9833883018631,77.1239048417602,54.2373266904739,49.660364341545,37.4049312604833,70.7956154688667,75.9108864808912,62.2777888348611,64.5072596912078,38.868592841505,40.4142651332856,62.5890170731666,69.3479056077801,44.6505084405277,73.6476874515125,47.2127393427081,61.880672101582,59.2397471653056,70.8297787424655,77.2392865411266,58.4883520190041,64.8275446380465,53.048729081643,73.6870212716945,47.3500328220207,54.4913915721958,60.7756925293976,33.58156978625,50.6430375951334,61.4393411728403,69.5036182300713,82.8133158440252,68.318660477821,77.2920312308751,70.1747942925554,62.4896903081389,60.855678334875,59.8172850763811,72.1338839510222,69.7910031849167,50.7184064231449,46.120695646589,41.5038694975833,76.8676079478096,62.2359028085,73.8564527187809,34.4645021501112,71.2768537676666,43.8191343154166,59.3524124935298,53.9256651855833,74.9946402520817,59.8297812973611,78.9035348566508,35.6759953225555,66.6950568932497,51.2633172696683,70.0326920885057,63.7958454331706,75.4751504647781,35.8955095154231,59.2156319980924,53.517848490931,33.7271635609792,38.4551764337332,38.7789505278434,61.1359416641944,46.1379437688223,35.5841549743999,54.4272205754166,47.4967653391668,50.5563841878556,30.6874207186944,47.6253890416111,57.5468849801112,49.8194159822777,66.4647253381112,34.7938138762944,50.7040462171066,33.8528969116945,47.7856804390334,38.2691372564999,47.3957331845333,31.71052694125,42.0700653068333,56.2745864363611,60.1848427505889,58.0227948611389,40.6469451703333,52.6539021863723,72.3212017933333,41.2351885200666,35.2554256375611,34.4352973545056,62.6432952788612,47.3200563537667,41.4848418466389,50.778705629039,44.9232173608334,67.9768226235555,38.1525406603889,48.8421153818333,40.53129135375,41.9757007477222,66.4639513288111,46.772641015111,56.7473900419056,22.4758345568889,46.8082581132223,56.3498555457222,51.8136700004722,52.7867399183611,53.4760139177222,30.9952938794444,53.1625455143167,53.7508833603055,63.9825248483889,68.7315697793445,43.1314829188,41.0806761004167,39.5117452344722,56.5678290461277,58.3014907065201,38.3450304425832,31.9462472482223,52.7968706325611,56.4938979929722,54.1422127354445,45.4395540715,55.7750794877055,42.1227122056777,37.1768081890221,49.1428386278889,32.6710824158055,70.9183881774722,50.9434519228944,67.3210100498888,54.8717497498446,54.2450309354444,72.4945248840167,40.2675355094555,67.4873909036612,53.3039434486279,43.86995626335,54.1071874139744,58.6509311756111,62.1943955220556,35.0620082988889,39.5499575520833,51.3184151293166,51.7980684264778,40.6370978254522,55.8461564775111,35.0688053170333,42.7328529784166,46.9123711029411,64.2956951937889,60.2276694459945,49.6588066505279,62.320716661,39.1955340054167,59.6873865881667,66.7704405089722,60.8725547702645,51.8617432589501,51.2961503063279
55.1969746505956,53.5994915684784,41.94605750475,49.1555790852856,23.4907023426477,50.5090716004559,51.6470150854998,44.0480370924131,15.6913191384535,79.2814516198689,23.286104436665,53.2724069291605,29.6182564913631,24.0925740279215,71.6256096344582,45.0737937470617,98.8973967021844,29.1892878494359,61.4087737609013,22.4056989106518,48.5807421422604,71.9176355162379,46.4907362143035,50.6891389956024,51.2461481600712,29.3971161873445,41.3345808544906,71.2978802676429,79.6260084532024,1e+08,27.5796887080786,50.1263425768868,25.3677229966833,31.3331497452322,26.163818656238,22.4157197908274,29.5453531514845,41.7231078044063,53.3176476114774,37.3390362439588,33.2569080378898,20.7730968936111,32.1381956487843,44.5880039951508,36.2285189348035,27.7146653731428,29.2009753324011,51.8676337514633,26.0855631649217,45.0350410224985,24.3097192220935,21.7191468485417,30.5519483643938,26.0379186725766,18.2705015959803,28.3986336882434,27.9581549176174,26.3668432569027,49.5073599011188,23.5811718733111,37.7086246454577,70.707544929875,22.2103714435033,26.7707551955832,41.2741761287342,30.3096815031981,24.2060396931446,24.3889784080535,18.9504395205555,25.8044850959761,35.8814415954345,16.6534003603039,24.7352860621118,47.0005146869465,22.7301334640655,41.0158992483746,35.234417790881,31.6950731008035,33.5689046683303,28.0622203248202,56.9340687363929,22.1191840709,34.912954334284,17.9553526231797,18.6815506836999,31.8639748133137,18.829958971742,35.790850981875,47.6402093781965,33.4186895339628,35.7330593147931,28.8498172331916,16.6682578066944,31.890318163612,45.5197789081497,24.1667260313821,40.0796840811119,42.3137716153095,33.2360706825511,43.7003954247571,40.4641530765178,35.9390656445191,51.4179604949595,43.5396241053274,67.7728942542975,38.3221672814001,47.8590712597679,38.4636188130595,38.2565911078215,47.2807863628452,37.6052981524405,45.8519657279178,67.6886867064203,60.7909353902143,70.9203830541702,48.1807923359465,37.9329167026594,41.6047740866607,36.3245506518691,45.3520773476964,33.9662468863905,38.2639656764406,35.5091745205655,37.0918475491083,59.2255052174047,46.7746295900143,49.2597209382834,46.8250978853309,45.1808783005655,37.5419100114953,43.5102700426429,42.0735462449715,49.9401799440654,40.2196851921607,46.671786974369,38.0584586909822,38.8617979377738,39.4838864291786,39.8001638892893,47.2222660089285,42.4558101689035,59.720580142637,34.5712995651488,38.9013533116369,40.3927577861846,39.3386915074583,41.2739789183155,43.1310749264048,37.3421497393643,39.6802238113452,41.1140936884167,39.8194543887607,48.2692831310738,48.770839793881,54.9325897141251,36.8075365098762,36.2538538494534,54.0030427380416,61.9754226577678,43.9649439314189,37.3456146064465,42.7703879785238,39.762504422369,52.5622650663999,54.5787437127665,53.3891738740691,38.6788696400953,42.1725254168036,50.7101143285595,37.1444583790452,39.5030809588214,37.2064149124834,38.2361075345119,38.7639339148965,37.2695992312273,39.6514959633571,38.5253437918798,42.7559219349666,37.4006880992478,43.1679135320119,41.664640999894,45.3282301997917,47.1448475674822,40.2468802138702,47.8864297283191,40.4844442809194,40.0600540802464,48.2138262170513,42.5958293420714,36.1996909851014,38.0217083193167,40.3348879228953,49.7793873213987,44.6473813639763,51.7099246735772,40.3979951000654,39.0322794353512,40.9168214736205,32.7804781226941,40.5711935452881
31.5734877718189,31.7400097456227,39.4576922243324,32.5897268526127,23.7327606454985,31.0637810119177,48.195675061804,18.9869799080881,34.7578625910255,67.7879891187122,22.8934583985441,24.6464046717616,15.9438557659465,28.0666843747779,65.4449010411818,52.6211883852638,72.7090510314365,28.0747944403631,31.5569465192143,36.7322525509859,47.4489763982123,39.3253646895315,38.1564732187366,24.89719496606,31.345041376581,32.9935374950415,46.1186327296561,38.8775839207161,46.0902462388609,27.5796887080786,1e+08,35.8859575064952,25.2197534813772,14.3627057096788,13.8609678933404,28.2500980685619,8.30197518877061,21.8374087303591,47.4360061147604,36.609065634919,32.4228398727192,20.9500802064278,28.7256455653246,34.0610934184596,15.7209215836744,24.633972406551,25.4189070493789,48.1414780026711,28.1886665371673,31.9541771217457,20.2925160591204,27.118476347607,31.9185275625697,29.804927647511,11.9605942804333,23.6383301880373,21.915646290439,30.0672986415429,32.7264527295949,21.5268399130172,30.3408834577854,36.9160785490536,17.8504143762154,12.2695809633901,39.1236776283259,37.3382775351122,21.3486074731499,25.1523879347729,17.7576585900233,25.7827840374449,31.2638041941888,16.4750170066493,19.2744693141456,44.8739155294295,8.40255385218539,27.9155849821516,18.7318472122027,37.6881556257147,26.5279762635897,30.6314930582436,21.8639259481548,21.0556432217763,18.5172476493989,21.2699949858836,29.1021939468183,35.7133307497235,20.1851771765747,33.5490171575914,12.7702838537061,33.2160553889512,41.5892483148833,34.5996848480749,22.3190471133643,39.0951363611384,21.9462566216698,23.8160248059213,30.323358734052,18.6678927717711,21.9453533976172,26.6759467859078,35.3870473296148,30.2062519359858,27.372193939011,31.5194293300165,51.7177562858853,30.4205187150329,25.9704779614129,30.636043275806,34.1844511327535,32.7590268187581,35.1328369748177,39.0945538930588,70.0631493913707,32.0684305940081,44.6597398179898,30.1163781474089,32.4707386835036,28.0702048688217,30.0659064696512,39.9634367019521,40.5228375561772,33.532952497163,26.9795644778929,33.4751530221281,57.5252991918488,41.0309798200612,27.517698475097,29.3054146018589,35.0274930312056,30.539238711178,33.8131417527703,30.3047924122077,30.4909308325717,36.6466922666785,40.8920816977461,28.258457579877,31.5803788683055,32.5786736706792,41.8248720361088,33.814309895127,35.6263678642126,39.9474734194245,31.37908885154,34.9594601783452,33.338680105357,35.2004069325435,41.0715562994244,22.8659809031626,32.4596440366288,39.731167061746,35.1793892329516,37.2697225023812,29.6822254367323,32.232310026421,49.3656311811547,32.3638294120947,31.8769525818573,32.4017082172897,53.1238181128806,31.9614581157407,38.7673693114091,34.2788901423847,32.3615119223766,38.0692052471877,34.6651796684495,33.164977434589,30.8292193449677,28.9330411731429,44.8338517621108,35.1056765996316,34.97463073425,30.8186636035068,32.7342808069961,35.1266807948593,29.8689640132079,33.3287040863497,29.0115032348119,28.719609944471,34.4531784427119,33.2668526446866,34.6465509349212,28.7085613040913,37.9940277405914,36.7788693024657,35.7947413792635,26.1039858128063,30.0069262840887,27.750574493712,34.4972772398813,29.6723332513504,30.3871909733257,38.0811451592455,32.8883564721946,37.5090039150276,30.3979719013253,37.1958165614521,31.7093031877226,33.8678332038946,36.3517414458457,29.6608794744397
47.9436147540981,55.6385316267073,63.6268034990561,52.9091270656722,50.8159898402071,60.0515961447117,62.7602547340598,46.5515609580476,53.3278370218001,71.9183937473308,50.430778509952,54.0579072274262,54.6759458523238,58.0074455792759,74.0674918447285,68.8189454569249,65.6010513782999,45.4952914568211,59.1214946144791,61.6093071269201,63.7394609862354,55.7528011918356,44.6392770588523,46.2922215676011,47.7190899626345,54.5938255470857,72.1299039076674,50.361606961719,46.5378162532365,50.1263425768868,35.8859575064952,1e+08,42.2347943255143,34.9439844413226,42.2282288063452,56.5628671903403,44.4353513507553,45.0384948792524,38.5364926900309,42.66985244643,49.1591810370808,44.0344537512499,37.7903655171006,36.7853104321998,37.7831839772452,35.0373163210785,50.6841116430321,55.0991516788861,55.9056360184241,53.4158685366262,35.6024314828474,33.6638689504017,43.8800515138211,52.5267831404075,41.3408166890083,32.1474865182624,29.9056254514975,50.7112364140276,43.8203891966499,45.1961163366821,56.1205616865213,42.9942264783381,40.3374530763399,38.2303267849851,59.5793059896658,66.7308048255188,52.2739733827429,53.5951564196249,42.2370871016587,41.6396703530142,50.3765168898953,49.4426254488403,36.9931540104429,54.7925471312523,40.7370547890428,51.8482301976953,43.3882484813476,50.0682292177284,44.7782513397363,54.0420042403713,38.1458754897928,41.2856689300143,38.6709521181667,45.1048532316321,49.3614154011024,38.2295946343968,34.9239148349087,45.2865125443332,42.2957004640023,55.7005726468205,35.2299298441878,45.5340262823607,38.3286687622857,62.9126313837604,43.9431959340252,32.6090152545964,45.002532768331,32.7959736789476,43.8341369328405,34.36958626286,45.0228485226428,43.5167558183071,48.2626377933501,54.4700602698785,63.1505618533143,43.0366099838357,45.9272410468357,52.0940084572785,44.7004368911858,55.8624277106499,46.7926053985928,37.2824800877929,56.3117531340471,61.6645494223,69.6846910559071,52.5276926225572,41.6399345753,46.8214953425785,50.50827076815,39.0951908492071,52.9060618384857,43.1932382225785,45.4977015471571,42.2730744202429,53.8443027296714,37.0460484517143,49.6038028435571,49.3499566034285,44.4376883428786,42.7588212525285,48.0423962854357,43.6896195122857,57.234327314093,51.4256971071785,49.1942140924929,43.3896884744643,40.1497287408572,47.3639163963358,59.8786373261428,59.2717557163357,45.1325950001072,44.9845007198286,48.4444621423357,50.0480292115,42.5904843076857,43.1409212915072,42.6364363050644,38.4892083909,46.4304236148142,37.5122652181785,43.9775177886928,51.8768672092285,42.8444531202714,59.3304409287714,40.1371233677714,44.1523907771572,45.9986409895728,52.5213267906,45.8911486272787,55.8900715784285,57.9029223871928,45.6170905466357,39.6355776526214,55.24401347055,57.9077593774357,52.5980232067857,39.6537955425286,46.4077664371572,49.1447959530214,44.3475631849785,42.5007851165929,35.6008383451715,48.8488950151285,48.1702185995357,44.9630627903643,53.9484895187499,49.3337140033857,46.8142626700215,43.6519664349299,39.4661235752571,46.9446918983642,48.6199304157786,49.7300112475071,45.4842020942786,60.0878151771,46.6310959993372,44.6043896723,49.6545843032357,51.6584682252642,45.24855152813,53.3116543859928,60.93877662175,59.5978961750716,42.5181975501643,42.5506382299214,46.457554162,43.9201166711429,58.152209871563,41.4573572816642,43.9226551694786
43.0246440935357,32.7551612022564,38.6249532719273,38.1155649299583,29.71871536345,44.5600608155331,52.7025997134139,32.4024367543499,22.6136230371082,70.8819659404749,30.7978094748563,26.6051012476666,36.0335215584858,20.8198780225455,56.7305723029416,41.6687230952666,85.54433782,27.2609338032337,29.3619652937215,36.1019807408091,61.7134701972141,44.7826309124856,45.9145462811048,25.4764977536667,35.1702691827917,30.3713933922914,47.3144952771022,48.0920734509333,59.2519920547388,25.3677229966833,25.2197534813772,42.2347943255143,1e+08,22.6941450745167,30.2360076652415,21.1832283431341,30.5077311006501,38.7760894541226,52.4854453091333,25.173362573511,28.9649564431349,11.7927437667778,19.05434350374,36.5927571764137,29.6335241593095,17.1827455280666,19.8147460698333,43.6317935830718,30.4362367571909,29.2936599329024,10.5392834558772,34.8664099758873,22.29996935495,22.6608832522867,19.1673322656,22.1393848232893,28.3667407221388,25.484821471,49.8164091429374,12.9189279777291,28.0881413298902,56.3108712823833,25.8819153280894,20.9704073680416,24.5066974625047,34.7327500665832,18.7202787926499,20.67792982985,14.5729475252222,14.0322608452,17.3536426918666,23.6779677116658,25.0192591501499,42.0268226434833,26.2752944630035,29.9050069579333,27.3171203970166,31.3944993268284,17.9840746033667,15.4304559411142,40.3556814554999,16.8283864238,27.3284947609888,27.3756797494141,37.8296436157333,24.4594970203011,22.3972050882611,29.1039980220214,38.377155291,37.78594600925,26.3570698044322,17.2671663362499,19.0992918649682,38.6238953120934,25.1492023934038,31.8590327706428,24.1720158187167,27.1663534029041,38.1663929527,28.4486219216798,32.2094616057,32.9280455584,39.93345939165,31.90329114465,55.2379359679,32.29080248955,41.518989305,32.38411362925,32.241440517,41.163751309,32.3974791394999,46.71895202865,68.93587935024,42.7075937977499,53.03635126555,40.1398326913999,31.24763895225,36.95083657815,31.6518113589,37.23178830155,42.5069789848,33.4279317200999,38.524703059,31.2329632758,53.07643694785,42.86994153435,34.1383540722,40.4823842936,32.8437817348,33.8093562159,34.3236419370999,32.0486093468,39.19934719025,32.6927502569,44.6137755976001,37.83088637085,35.4164138436,32.3809241185,39.90726695915,41.1383749655001,32.4105802057,53.9669526845001,29.68745475675,36.02806942785,35.7894302195999,35.74394562345,34.2435651014,32.22027163695,32.09535009985,35.81439522955,31.9809072187,39.2477755952,34.96003598415,42.6314201593,53.58847819295,33.70292867225,32.39853562868,43.72628003925,58.45371463345,38.99922741535,39.5477846771,34.16223270895,39.49889892745,41.03245419315,42.5372871318501,43.3606391624499,28.2480834765999,42.13384927915,42.7746266396,34.9310026409001,32.75056512195,35.2551561394999,29.6500130675501,36.0467160329,33.9813788863,37.57105691275,31.6851543442,39.9313565673501,32.3959818345199,36.79276355755,32.7559863652501,34.8800413221,48.08833016465,36.76588586945,40.1778128836,35.1691359973799,31.43328130335,36.7522993149,31.9943387939,28.81387004712,30.00359153015,39.8714509537001,41.10026525825,39.85076822445,36.2999055721,35.04552810265,34.4041787125,35.33330888177,29.2295587635001,33.1941174325001
30.8530236958095,26.9301641368077,38.5435723527202,38.0873556585833,28.2674366189666,31.1990624962832,49.2412378392362,22.6976966292666,45.520389319925,70.1634275456944,28.9025531267481,27.1765300879166,19.3025934754643,35.7861586510492,64.7232115505834,42.1040038886833,68.5390233119464,25.1515140164774,35.1021341515075,34.8120607237651,49.5881104131435,40.1658287889642,37.9799760558274,22.1257276173167,33.3749007815833,30.9564398789676,39.9447426444083,41.6926747124167,41.0050841211527,31.3331497452322,14.3627057096788,34.9439844413226,22.6941450745167,1e+08,23.4996253675833,30.7414101897603,20.777101031031,28.0932167856182,41.387338104775,35.4448450102972,36.444287841112,21.0941691688055,25.4954970412466,33.2896358867993,17.5687541246429,29.9626144295001,31.23671535721,48.3771719645672,38.1290359795966,40.9415821697083,25.4506777509621,29.8419516491875,33.229462062217,33.9213440602933,22.4368006996125,27.0115817419166,23.3686657905222,30.8845097744166,37.1558775412618,13.1067984044166,35.3422828504886,43.6990203114999,9.66442226940909,16.9852340930834,37.6500439513491,40.27227689465,26.8651822396166,31.0111717006667,25.9674486131389,26.3358462544167,28.0322337960833,20.5330741695445,21.3223161233333,44.7773679519166,16.1781702089167,17.127447369075,17.3120600563333,30.5774729229881,29.6564060803958,33.9943523938225,24.6598863254166,30.9227383974167,6.75168889759443,28.6808974987121,33.4435897994167,31.9888688303161,30.1411541933055,26.8983590949285,17.7241628239167,31.2029058542187,40.9752014247447,37.1157728094334,26.784612538627,40.0923437631141,15.5222405609615,29.0805598245297,35.3116254547975,18.87243647075,26.2958667591833,30.5030444358133,33.9960055035834,31.4697835523083,34.6907910424834,32.6841096157084,50.4909582691666,36.142835615925,29.2353015309166,31.656725093125,34.2734453013333,36.7048604321249,32.9790685553334,36.0712526204833,56.240755592065,42.5166735422918,54.8266692394001,32.4682621005,32.2718724901583,24.0173669458333,29.1409600600416,41.8483685799167,35.0462041064916,32.4245990111667,32.6040598370417,33.107071389275,56.6679243129584,36.6776147758167,31.274700711325,29.0642728764083,40.6879190519583,31.9656964916084,31.0097935757083,34.3147411967749,33.2838110474167,39.0547784585833,36.266735499625,32.588398263,31.4710203624583,27.0782420616667,35.8219909674917,34.7185321119167,36.8340099292667,37.6093748502917,29.7504016473334,31.218924568375,39.310681790875,33.5192386109167,40.1694326234584,27.5214695399166,34.0044702299833,47.0074694832917,38.6458070964583,40.5967918969,33.91075649095,36.7352221252083,44.825987242,32.2480685524834,35.92530740907,34.5742208569584,46.8324353459583,33.8237850588834,39.226165986125,35.1745407331249,35.5038338094583,38.060661042275,34.5249934400167,33.9855381237,32.3715937884166,28.23079262875,44.9600370485833,35.2310331442,37.6498923840834,30.7312016733832,30.325132181625,37.4895661229751,27.7208645518999,33.9448144395749,30.250582626475,31.6755281662416,33.6236569720717,35.8847164641667,38.1635879861333,30.1665352686666,35.8304788042916,37.877034618525,37.2316311557417,27.844574123855,32.6003420549417,33.6553495874917,28.7738625366667,30.2637931177467,33.5716035212333,37.367115188675,35.5571342980833,40.4054000991666,31.9084875646666,36.897787248625,34.5759336181666,34.48143472968,34.6785446532833,32.970052047175
34.4897713039901,32.3196474314569,44.5551652371606,42.5665338497003,30.9565140564749,39.1400375677333,61.3911274758887,33.7054874765226,29.0138488806631,71.714337100125,16.3905566649571,27.0281430704762,28.7927257629476,29.2612010947104,69.7365738854165,59.6676883935665,68.7658458377737,24.8711837094122,31.0866311143834,38.7770960853676,52.1244899295532,48.1658021202618,49.0391432319404,32.1653070161142,45.4782407551845,41.2375065362881,53.2726075938497,42.9199815151249,49.9833883018631,26.163818656238,13.8609678933404,42.2282288063452,30.2360076652415,23.4996253675833,1e+08,32.7489169273484,15.7201396096929,29.3892548330494,56.225966554686,44.0322280447741,41.9782015505657,20.9329058291508,33.3325814136533,42.9764828077012,28.2358668232857,28.6585902065,26.4444978659845,57.0731421876121,35.8620977326039,35.5143381688938,28.495213604791,24.7412508284167,40.8383166269647,37.4514564044851,18.2152570597047,30.2947410249357,31.2517645862286,41.1201236868035,40.3703733592261,27.1303501239522,41.7382582731352,43.6296848828273,30.4499629704513,23.2147686801368,38.1961096031091,45.6111475362676,16.564731239388,34.4088252248451,23.5680110335555,33.535435744619,34.6866381563869,17.7245602641056,28.83604120015,48.8677547548572,8.42951141616665,27.0893843206118,24.9507444825119,46.4783899848809,33.6761126920713,36.1182935794774,38.394777725006,29.7158835656417,26.4625184827682,10.0198472888988,24.9530642992,44.6348150297131,20.8609325049007,43.1543158883453,30.1280651396309,46.2594674588496,35.0172733359742,43.1734303474404,30.8100329578888,39.5730017875508,34.6649943272646,32.1200503493963,44.6977368977964,18.9254476457738,32.4975030634047,20.8125206755052,32.56417775225,30.2275516190131,34.973417850775,34.3621723419703,62.3376464852976,26.3949318621881,35.8752864449346,30.991648983881,33.43231401575,36.9093208140118,33.0284039360119,40.3008463267441,63.7596698729112,37.6275062090476,53.0862749258202,33.329743560875,26.9659655406988,31.2442250294048,29.1213738494345,36.2985764479762,37.7070746868893,30.3526285233214,27.1115875346191,29.0707333439869,57.132738021506,38.2205957210762,29.3681836056214,35.4181000711274,32.805815598887,26.3825344130941,32.6185375840714,29.4492101455345,36.2413030925833,38.6983174510357,44.8004863034405,29.4347198359286,29.3814263009881,31.6934386633631,41.3432754089845,36.0376032904583,32.001167407781,40.3290331586965,30.0087907481012,31.8805877730595,32.8058397866488,32.7548144169166,35.0052815344464,25.3846656004405,30.8224571915107,34.3288063166012,36.4654160755,36.1008199748084,30.974491664781,38.2398261711131,44.9615920914881,32.1490598568202,29.2666128066038,34.4616877268512,44.6488465855952,37.2970089867179,40.5359496020536,27.6144796728571,31.6089832881429,42.4700501861179,35.7757798666286,37.9454410671798,28.2904733229761,32.4615341929405,41.8464885650893,30.1382751956155,33.7907004988214,31.7056677782976,31.7959266926608,34.2056259653167,27.135153387725,35.1275086613357,30.3561548810607,26.7127910366631,29.9633415144462,32.1193818884821,36.439535609381,32.0194110193334,42.1610048268869,28.6400174119334,40.6185387986452,29.4469836902772,29.6165539626357,29.7292180451691,33.2266189446964,28.2398314232795,34.583936981844,38.4798410553608,39.0537669382977,36.9306147937619,29.0427496303095,33.3411373312142,33.6762019062976,36.7317853745874,31.7203161475976,30.2459883477833
