1e+08,24,24,48,24,0,0,48,0,16,24,56,32,0,0,24,8,24,24,24,24,0,0,72,32,32,0,0,24,24,8,0,0,56,0,0,0,48,0,0,0,24,16,40,24,40,0,0,24,64,0,8,32,0,0,16,32,0,24,0,0,0,24,24,24,0,0,0,0,40,24,0,16,16,0,40,64,0,24,0,32,0,32,16,8,16,24,32,48,16,24,0,0,0,56,24,0,48,56,0,5,13,15,10,8,12,18,7,10,20,9,13,9,12,14,17,15,11,14,9,5,9,9,7,8,11,14,17,9,10,10,10,15,6,11,8,12,17,7,13,7,13,9,7,8,11,11,18,10,10,13,4,8,13,11,10,10,3,13,13,6,7,14,13,6,11,8,18,8,8,8,12,7,11,8,8,9,6,10,8,10,10,12,14,17,13,14,12,11,7,9,3,12,14,11,8,11,8,12,9
24,1e+08,48,0,0,0,24,0,0,0,24,24,8,24,0,24,0,24,64,16,0,0,24,24,0,0,24,24,0,24,0,0,0,8,0,0,24,24,24,24,0,0,0,24,40,0,24,24,24,48,24,24,0,0,24,0,16,0,24,24,32,0,24,0,24,24,24,0,24,24,48,32,0,24,24,24,40,0,0,0,0,0,40,32,0,24,0,0,40,0,0,24,16,0,48,0,24,24,24,32,16,6,14,7,15,8,13,18,16,10,9,9,17,13,6,14,12,16,14,11,7,10,10,15,11,10,11,6,9,7,9,9,9,12,17,11,16,9,13,15,12,15,13,11,11,16,13,5,11,14,14,7,10,9,11,13,18,13,17,12,16,19,7,7,13,18,16,11,10,7,13,11,11,10,17,20,16,17,8,12,10,5,15,10,11,11,8,12,13,13,13,8,18,9,15,16,6,14,13,12
24,48,1e+08,16,24,16,56,40,0,32,24,48,0,0,0,56,0,24,24,16,24,0,0,24,0,0,16,0,0,32,0,24,40,24,0,16,40,64,40,0,16,0,0,56,24,0,32,0,72,24,32,0,16,32,40,40,0,16,32,8,40,16,24,32,0,40,8,0,40,56,72,40,40,40,0,0,24,40,64,40,0,0,48,16,0,40,0,0,48,0,16,40,0,40,24,0,48,40,32,0,12,14,17,12,10,5,17,11,14,16,8,7,7,12,6,13,6,14,7,8,3,13,8,9,7,5,8,10,10,6,6,9,6,11,12,18,8,5,6,12,12,7,10,5,11,12,12,8,6,12,13,6,8,11,11,15,5,7,16,14,13,14,7,9,4,8,13,10,4,6,14,12,8,11,4,13,11,14,10,10,17,4,13,5,19,10,13,6,9,7,9,5,18,6,8,15,8,13,8,10
48,0,16,1e+08,0,32,40,24,0,16,0,16,32,0,0,0,8,0,0,16,0,48,0,40,56,16,0,0,0,0,8,0,0,32,0,0,0,0,0,0,24,24,32,0,32,56,0,0,8,40,0,32,32,0,0,16,32,24,0,0,0,0,0,0,24,0,0,24,0,0,8,0,16,16,0,40,40,0,0,24,32,24,8,16,8,0,48,32,0,16,24,24,0,0,32,0,56,24,32,0,4,7,11,12,11,12,9,7,6,16,7,15,6,7,18,12,9,6,11,10,4,6,12,4,8,8,9,19,14,7,9,10,14,8,10,7,13,13,6,13,4,7,8,7,8,9,10,14,9,10,13,6,6,11,15,7,5,6,6,14,5,3,9,15,4,11,10,18,7,8,10,11,5,13,8,9,8,8,10,7,7,11,15,8,16,13,15,15,15,3,11,1,12,11,8,6,11,9,9,9
24,0,24,0,1e+08,24,0,48,0,32,56,24,48,0,0,24,0,32,32,16,72,0,0,32,40,0,0,0,24,24,48,0,32,24,0,64,0,0,0,0,0,24,40,24,0,16,24,48,24,40,24,0,32,32,32,0,32,56,8,32,24,24,64,48,16,32,48,40,24,32,24,24,40,0,64,40,0,8,24,16,0,40,24,24,72,0,32,48,24,48,16,16,32,16,56,32,0,24,0,16,9,14,15,9,9,5,15,10,8,26,5,13,4,8,5,10,8,12,12,6,5,6,7,7,12,8,13,17,5,6,7,6,14,7,20,17,5,10,5,10,5,5,7,4,10,8,8,12,8,7,10,12,8,16,9,9,9,12,11,10,8,9,5,8,7,6,10,17,10,10,6,6,5,10,5,13,7,7,9,6,6,13,17,11,16,10,11,9,7,5,11,7,15,7,7,11,6,18,10,8
0,0,16,32,24,1e+08,0,48,16,0,24,0,0,0,0,24,0,0,24,16,24,24,16,0,0,0,8,0,32,24,0,0,24,56,24,24,16,0,16,0,0,0,0,0,32,32,24,0,24,0,24,0,24,24,32,16,56,32,0,24,24,48,24,32,24,24,0,0,32,0,0,32,0,0,24,0,32,8,24,0,32,24,0,24,24,16,0,0,0,0,24,32,0,16,0,24,0,72,40,0,8,6,13,14,5,8,13,13,8,17,8,14,5,7,8,8,7,12,11,6,7,11,11,8,8,7,15,23,10,5,9,6,17,8,9,11,10,18,4,10,7,11,11,8,9,7,9,17,12,7,12,5,14,9,8,9,5,11,3,16,4,10,8,11,7,10,8,17,4,9,8,12,6,8,11,9,9,7,9,6,10,21,14,7,15,15,14,12,15,14,14,1,12,7,17,12,11,6,7,7
0,24,56,40,0,0,1e+08,0,0,32,0,24,0,0,0,48,0,0,0,0,0,24,32,0,16,0,0,0,0,0,0,40,40,0,0,0,48,40,48,0,16,0,24,40,0,24,32,48,56,0,32,0,24,32,0,56,0,48,56,0,48,0,0,32,0,48,0,64,40,48,56,40,56,64,0,0,0,48,48,64,32,40,0,0,0,40,24,24,24,0,24,24,0,48,0,0,72,0,0,0,3,10,10,9,12,5,13,10,8,10,6,9,3,9,6,9,6,10,8,9,3,5,7,9,5,6,3,11,4,5,6,4,5,6,12,12,13,4,5,6,8,4,8,5,6,11,8,3,6,6,7,4,4,9,13,10,4,3,18,10,12,5,4,12,4,7,7,9,6,6,9,8,5,7,5,14,11,12,4,8,11,3,12,4,16,8,6,9,8,4,10,4,13,5,3,10,10,11,7,8
48,0,40,24,48,48,0,1e+08,32,24,48,24,24,0,0,24,0,24,32,16,48,0,0,24,24,0,8,0,24,24,40,0,40,24,24,40,16,0,0,0,0,24,32,0,0,0,24,32,24,24,24,0,40,24,32,16,24,24,0,24,24,48,48,32,0,24,24,24,24,24,24,32,16,0,48,24,0,8,24,0,0,24,24,40,48,0,24,24,24,24,0,0,48,0,24,48,0,48,32,0,8,13,19,9,8,6,21,5,8,25,9,14,9,10,10,15,6,14,10,5,4,13,8,4,9,8,12,16,8,6,7,5,15,7,17,15,5,12,4,10,7,11,6,5,9,7,9,21,10,9,12,5,8,13,9,7,8,8,8,7,4,10,10,11,6,6,10,19,8,7,7,10,4,13,6,10,7,8,10,4,10,16,18,10,15,12,14,14,7,7,13,7,11,8,11,12,8,19,7,12
0,0,0,0,0,16,0,32,1e+08,0,0,0,16,0,0,0,0,0,0,16,0,40,24,0,8,16,0,0,0,0,32,0,16,0,0,0,16,0,16,0,16,40,16,0,0,0,0,0,0,0,0,0,16,40,0,32,0,0,0,0,0,24,0,16,0,0,0,0,16,0,0,8,16,16,0,16,0,0,0,0,0,0,0,0,0,0,0,0,0,16,0,16,24,0,0,0,16,0,0,0,9,9,9,10,4,7,7,9,5,6,14,8,9,7,11,4,7,2,5,6,17,14,9,10,8,13,3,3,15,9,9,6,6,11,5,8,7,3,11,5,8,9,8,13,8,8,10,8,9,7,8,12,2,7,6,6,7,6,3,6,10,7,9,12,3,4,9,4,8,8,8,12,7,9,8,14,11,6,7,6,8,5,4,7,4,7,11,4,2,11,11,18,7,10,8,9,14,7,10,6
16,0,32,16,32,0,32,24,0,1e+08,32,32,0,0,0,32,8,0,16,0,32,0,0,16,32,16,0,8,0,0,40,24,32,8,0,32,32,32,32,16,0,24,32,32,0,0,0,32,0,8,32,8,0,32,0,32,0,32,0,0,0,0,32,32,0,0,32,32,32,32,0,0,32,0,32,8,8,32,40,32,0,32,8,0,40,16,0,0,24,32,0,0,32,32,0,24,0,0,0,0,6,12,14,10,10,6,11,10,8,17,7,14,7,12,11,7,4,13,8,10,5,7,10,9,7,6,5,16,8,5,9,9,9,6,18,13,10,5,2,12,11,4,8,5,11,10,9,9,7,11,3,4,7,12,10,7,7,9,16,12,5,12,6,4,5,5,5,15,7,8,8,8,7,12,4,9,8,10,10,9,7,8,19,5,15,15,10,7,8,7,10,7,15,4,7,9,11,17,4,10
24,24,24,0,56,24,0,48,0,32,1e+08,24,40,16,0,24,0,24,48,16,56,0,8,48,32,0,0,0,0,40,32,24,40,32,0,32,0,0,0,0,0,24,32,24,16,0,16,32,24,48,32,0,32,32,24,0,40,32,0,48,0,0,80,48,0,32,32,40,16,24,24,48,32,0,48,48,0,0,32,0,0,32,24,40,48,0,24,32,24,32,0,0,32,0,64,24,0,24,0,24,13,20,13,7,11,17,18,14,13,24,11,15,11,8,4,11,13,15,17,11,7,7,13,11,7,14,14,16,14,14,15,16,17,16,18,12,15,12,9,11,8,12,8,12,13,12,12,9,16,8,15,22,6,15,10,16,21,15,19,13,18,13,10,15,12,14,13,20,13,10,12,9,12,13,17,14,15,8,16,8,13,11,20,22,14,13,16,11,10,17,16,15,11,9,15,17,6,15,18,12
56,24,48,16,24,0,24,24,0,32,24,1e+08,0,0,0,40,32,48,24,16,40,0,0,40,0,16,0,0,32,48,24,24,24,32,0,0,24,48,24,16,0,32,24,56,24,16,32,24,48,32,32,32,0,24,24,24,0,24,32,0,24,32,40,40,24,24,24,24,24,40,48,40,24,24,24,8,32,32,48,24,0,24,32,0,8,24,24,0,64,24,32,0,24,24,24,0,0,24,24,0,5,15,17,12,13,7,16,12,11,16,11,13,13,16,13,17,14,16,10,13,6,12,11,14,8,6,11,13,10,9,11,7,8,5,17,13,12,9,4,10,15,9,10,4,13,11,16,10,8,14,9,8,8,15,14,14,10,8,17,12,8,11,7,12,9,12,7,12,10,12,12,7,8,11,9,16,11,15,11,13,14,5,16,9,19,14,11,7,9,11,10,8,12,9,11,11,18,15,10,10
32,8,0,32,48,0,0,24,16,0,40,0,1e+08,16,0,0,0,0,24,0,0,0,0,32,40,16,0,0,0,0,72,0,0,8,8,40,0,0,0,0,0,16,0,0,8,0,0,0,0,48,0,0,32,16,0,0,40,0,0,0,0,0,48,0,0,0,0,0,0,0,0,0,0,0,0,48,48,0,0,0,32,0,0,16,48,0,24,48,0,0,0,0,0,0,48,24,0,0,56,0,9,10,14,10,7,13,11,12,9,20,12,17,9,6,5,16,13,16,17,11,5,7,9,10,9,10,9,14,11,9,10,11,19,11,14,8,12,13,7,16,8,9,10,8,9,16,8,16,16,6,16,5,7,13,15,6,13,16,15,13,7,12,9,8,12,14,6,20,13,8,10,10,10,17,13,9,15,10,10,4,7,10,20,12,12,9,17,12,11,13,14,6,16,13,13,13,14,11,9,8
0,24,0,0,0,0,0,0,0,0,16,0,16,1e+08,0,0,0,0,0,8,0,0,40,0,0,16,40,24,0,48,0,0,16,0,0,16,0,0,0,32,40,0,0,0,0,0,16,0,40,0,16,40,0,16,40,0,16,0,24,40,0,0,0,0,48,48,8,32,16,8,0,0,0,0,0,0,0,0,8,0,0,0,24,0,0,0,24,0,0,0,16,40,0,0,0,0,40,0,0,0,10,7,10,3,14,15,7,10,11,8,7,10,10,4,2,9,13,5,8,10,9,7,4,13,11,9,9,6,11,12,4,13,5,17,13,14,9,4,15,13,9,10,11,10,9,13,9,5,7,13,14,28,4,8,9,11,17,9,6,12,21,8,10,7,11,10,11,4,9,10,11,6,14,11,8,15,13,13,12,9,9,4,14,17,13,7,7,10,9,5,13,18,15,10,4,14,8,14,22,12
0,0,0,0,0,0,0,0,0,0,0,0,0,0,1e+08,0,0,0,0,40,0,0,24,0,24,0,0,48,16,0,0,16,0,0,32,0,0,0,24,24,64,0,0,8,0,0,0,0,0,0,0,0,24,0,0,0,0,0,0,0,0,0,0,0,0,0,0,0,0,0,0,0,24,0,0,0,0,0,0,0,0,0,0,0,0,24,0,40,16,0,16,0,0,0,8,0,0,0,0,0,8,5,7,6,16,5,11,10,14,5,12,6,6,5,13,7,4,4,11,7,15,9,8,5,11,10,8,3,7,6,9,10,4,7,12,7,8,16,27,7,6,8,13,4,6,9,3,6,13,5,6,5,7,7,10,10,7,8,6,8,11,7,7,12,7,8,4,4,8,7,6,8,16,11,9,15,5,8,7,6,11,2,7,5,9,5,5,4,7,7,7,19,7,5,5,8,6,11,6,8
24,24,56,0,24,24,48,24,0,32,24,40,0,0,0,1e+08,0,24,24,16,24,0,0,24,8,0,0,0,0,56,0,24,56,24,0,0,48,40,48,0,0,0,0,64,0,0,32,0,80,0,56,0,0,40,64,40,24,0,24,64,56,0,24,32,0,72,0,0,40,72,80,64,40,48,0,0,0,64,72,48,0,0,48,0,0,40,0,0,48,0,0,40,0,64,24,0,40,24,0,0,3,11,10,10,9,6,13,11,8,13,3,8,5,8,3,9,5,11,7,7,4,6,6,9,3,4,6,10,4,5,5,4,4,4,10,13,8,7,7,11,8,5,7,3,8,12,9,3,4,6,5,4,6,9,12,15,4,4,16,11,14,6,4,11,5,5,9,7,3,4,8,6,7,6,3,16,11,14,3,9,10,3,13,5,16,6,7,6,7,6,7,4,16,5,7,9,9,11,7,7
8,0,0,8,0,0,0,0,0,8,0,32,0,0,0,0,1e+08,24,0,8,0,8,0,8,8,8,0,0,40,24,8,0,0,0,0,0,0,24,0,0,8,8,8,24,0,0,24,0,0,8,24,24,0,0,24,8,0,0,0,24,0,40,0,24,24,0,0,0,0,0,0,0,8,8,0,8,8,8,0,0,0,0,8,0,8,0,24,0,0,16,32,0,0,0,0,0,8,0,0,32,4,3,6,2,4,5,9,0,6,1,5,2,14,5,9,7,11,3,1,9,2,5,4,6,2,5,7,4,10,8,8,8,6,1,5,6,8,2,3,2,4,8,3,4,8,2,10,8,1,6,4,3,3,6,4,4,4,7,6,3,2,7,6,2,5,7,5,5,9,6,7,5,4,9,7,1,2,6,2,8,5,5,2,8,3,8,2,7,2,5,2,2,2,4,5,4,6,4,3,2
24,24,24,0,32,0,0,24,0,0,24,48,0,0,0,24,24,1e+08,24,16,24,16,0,24,0,0,0,0,24,0,0,24,16,24,0,0,0,24,0,0,0,0,0,40,24,24,24,0,24,24,32,24,0,0,24,0,16,16,8,24,0,24,24,24,16,0,0,24,16,24,24,0,0,0,16,0,24,8,24,16,0,16,24,24,16,0,40,0,24,16,40,16,0,16,24,24,0,24,24,32,16,14,9,14,4,12,14,10,14,8,8,11,10,10,4,12,23,19,17,11,5,13,11,16,11,16,22,11,15,14,14,17,13,15,6,11,9,24,5,12,12,18,16,13,14,9,14,12,11,10,10,15,21,15,10,15,14,11,17,5,10,15,10,13,16,12,14,11,12,11,12,14,9,3,17,5,7,10,11,17,18,21,12,17,13,17,14,8,19,15,15,4,10,9,15,15,11,8,16,10
24,64,24,0,32,24,0,32,0,16,48,24,24,0,0,24,0,24,1e+08,16,40,0,0,40,16,0,0,8,16,24,16,32,0,40,0,16,0,8,0,16,0,16,16,24,16,0,0,16,24,56,24,0,16,0,24,0,40,16,0,24,0,0,56,0,0,0,16,16,0,24,24,48,16,0,24,40,24,0,24,0,8,16,24,32,24,16,16,24,40,16,0,0,16,0,40,16,0,24,24,32,11,13,14,7,12,7,21,12,7,18,11,14,9,12,11,13,11,11,13,10,4,4,10,6,8,9,17,16,9,8,13,11,15,10,17,11,14,12,5,11,6,13,9,11,11,9,9,10,12,8,12,6,8,15,10,9,13,20,15,12,6,12,6,9,14,21,10,18,11,8,13,10,7,14,18,13,9,9,9,8,7,10,16,12,14,11,14,13,10,13,11,10,12,8,16,14,10,14,10,11
24,16,16,16,16,16,0,16,16,0,16,16,0,8,40,16,8,16,16,1e+08,16,16,0,32,8,16,0,0,0,16,8,0,0,16,24,0,0,0,0,0,16,16,0,16,0,0,0,0,16,16,16,8,0,0,16,16,16,0,0,0,0,0,16,0,0,0,0,8,0,16,16,16,16,16,0,8,24,0,16,0,0,0,16,0,0,0,0,0,16,16,0,0,0,0,16,0,16,16,16,0,6,7,5,4,16,8,7,5,10,5,14,7,7,4,17,6,4,3,10,12,17,11,6,4,4,8,5,2,15,5,10,7,2,2,12,8,10,16,28,7,6,5,13,6,11,6,7,5,13,9,5,8,3,6,11,8,3,8,4,6,14,8,7,12,6,6,6,3,5,12,7,6,12,11,9,13,7,6,6,9,9,6,4,5,15,8,3,4,10,8,5,15,4,6,8,11,4,8,6,7
24,0,24,0,72,24,0,48,0,32,56,40,0,0,0,24,0,24,40,16,1e+08,0,0,0,40,0,0,8,32,24,48,0,56,32,0,40,0,8,0,8,0,24,40,64,0,0,24,56,24,40,24,0,32,32,24,40,24,48,0,24,24,24,72,48,0,24,56,40,24,24,24,24,40,0,56,0,0,56,72,0,8,40,24,16,80,8,24,48,32,48,0,0,32,56,24,48,0,24,0,0,5,14,14,10,11,5,14,9,9,22,5,16,3,9,9,10,5,12,11,7,5,4,6,4,8,8,9,15,4,4,7,5,10,7,19,15,8,8,5,8,7,6,4,1,9,8,9,9,8,7,8,5,6,15,9,9,6,8,11,13,8,5,4,8,5,7,4,15,8,8,6,8,5,8,4,11,7,6,8,6,6,9,16,8,14,10,12,7,4,5,9,7,13,4,7,9,8,18,7,8
0,0,0,48,0,24,24,0,40,0,0,0,0,0,0,0,8,16,0,16,0,1e+08,48,16,8,16,0,0,8,0,8,24,0,0,0,0,16,0,16,24,16,32,24,0,16,0,0,0,0,0,0,8,24,32,0,48,0,0,24,0,0,0,0,0,0,0,0,0,16,0,0,8,24,40,0,8,0,0,0,0,24,0,0,0,0,16,0,24,0,16,0,40,32,0,0,0,16,0,0,16,9,7,12,15,7,12,17,9,10,11,11,13,6,9,19,10,6,17,19,12,4,11,12,10,5,15,17,18,17,5,8,12,14,9,6,7,13,18,3,9,8,11,13,12,12,10,9,14,11,7,9,5,17,11,14,11,4,9,14,9,3,7,10,12,11,15,12,14,6,12,7,13,10,5,11,5,9,9,8,12,11,21,11,6,14,20,9,7,18,13,16,4,7,4,12,12,8,8,5,7
0,24,0,0,0,16,32,0,24,0,8,0,0,40,24,0,0,0,0,0,0,48,1e+08,0,32,0,32,48,0,32,0,24,0,0,0,0,16,0,48,48,56,0,24,0,0,0,8,0,0,0,8,32,24,0,32,40,0,0,56,32,0,0,0,0,32,8,8,0,16,0,0,0,24,24,0,0,0,0,8,0,32,0,24,0,0,40,0,24,0,0,16,72,0,0,0,0,32,0,0,0,11,5,10,4,17,8,7,10,11,5,5,7,9,2,4,6,8,4,11,10,12,6,6,5,9,7,11,5,10,8,4,8,5,11,10,10,5,7,17,7,6,8,11,8,8,12,7,5,7,10,10,9,5,4,8,11,10,4,7,13,19,6,6,13,4,9,11,7,5,6,7,7,11,6,5,16,10,14,6,7,10,3,12,8,11,7,5,7,6,7,11,16,10,7,7,11,6,11,8,9
72,24,24,40,32,0,0,24,0,16,48,40,32,0,0,24,8,24,40,32,0,16,0,1e+08,32,32,0,24,24,24,32,0,0,24,0,32,0,48,0,24,0,40,16,24,24,16,0,24,24,64,0,8,32,0,0,16,32,0,24,0,0,0,32,24,24,0,24,0,0,40,24,0,16,16,0,40,56,0,0,0,32,16,32,16,32,16,24,32,48,16,0,0,16,0,56,32,16,48,56,0,6,12,14,10,10,12,19,4,8,22,7,13,13,14,12,18,17,15,12,15,7,9,10,9,8,15,11,16,13,10,11,9,19,7,17,11,9,13,6,13,6,11,9,7,11,16,14,20,10,9,12,7,6,14,13,7,11,7,12,14,6,10,13,10,5,11,9,20,9,9,12,13,8,14,8,9,9,7,15,7,8,12,18,14,16,10,15,13,9,9,12,5,13,14,8,10,13,14,13,8
32,0,0,56,40,0,16,24,8,32,32,0,40,0,24,8,8,0,16,8,40,8,32,32,1e+08,8,0,32,0,0,40,24,0,0,0,40,0,0,32,24,40,32,40,0,0,0,0,40,0,40,0,8,56,8,0,24,0,40,32,0,16,8,40,0,0,0,40,40,0,0,0,8,24,32,32,40,0,0,0,0,32,40,0,16,40,24,24,64,0,48,0,0,40,0,40,24,24,0,0,0,7,12,13,6,8,9,15,7,5,21,5,13,7,8,14,10,6,11,13,7,2,5,10,4,7,8,8,16,8,8,8,6,14,7,14,8,5,13,4,10,2,10,8,4,9,9,8,17,12,5,11,3,5,13,10,6,9,5,12,7,3,6,5,9,4,10,3,17,10,6,6,7,7,12,3,8,6,8,11,5,7,12,17,10,11,10,14,9,6,4,14,7,11,7,3,11,8,16,7,10
32,0,0,16,0,0,0,0,16,16,0,16,16,16,0,0,8,0,0,16,0,16,0,32,8,1e+08,0,24,0,0,8,0,0,0,0,0,0,0,0,24,16,48,16,0,0,16,0,0,0,8,0,8,0,16,0,16,0,0,24,0,0,8,0,0,0,0,0,0,0,16,0,0,16,16,0,8,8,0,0,0,24,16,8,0,8,0,0,0,24,16,0,0,0,0,0,24,16,24,0,0,8,9,5,14,8,9,7,5,9,2,14,9,13,10,13,4,9,4,9,15,23,12,11,7,8,12,4,4,15,10,9,7,7,5,7,7,10,4,21,7,1,16,10,13,8,11,8,9,7,11,8,13,4,6,7,7,7,11,6,3,14,10,18,9,5,10,4,3,7,12,10,8,6,12,9,12,10,4,11,7,7,4,4,7,4,4,7,3,6,10,8,20,7,13,6,8,14,5,10,6
0,24,16,0,0,8,0,8,0,0,0,0,0,40,0,0,0,0,0,0,0,0,32,0,0,0,1e+08,24,0,32,0,0,0,0,0,8,48,0,0,32,40,0,0,0,0,0,32,0,72,0,0,40,8,0,48,0,0,8,32,48,48,8,0,8,32,56,8,0,0,0,72,40,0,48,0,0,0,24,8,0,0,0,24,0,0,40,0,0,0,16,24,40,0,8,0,0,40,8,8,0,9,6,9,6,10,4,9,9,8,10,7,6,11,7,6,10,5,6,6,7,5,8,4,8,9,6,8,5,8,7,2,5,8,9,14,11,8,4,11,8,7,4,10,10,6,9,7,5,4,12,10,5,4,12,10,9,9,4,7,10,15,8,6,2,3,6,8,6,4,8,13,8,9,11,6,16,11,15,7,7,9,7,13,7,6,9,8,8,9,4,14,8,13,4,2,11,6,9,10,8
0,24,0,0,0,0,0,0,0,8,0,0,0,24,48,0,0,0,8,0,8,0,48,24,32,24,24,1e+08,8,24,0,0,0,8,24,0,0,8,32,56,48,0,8,0,0,0,0,8,0,0,0,24,0,0,24,0,0,0,0,24,0,0,8,0,24,0,0,0,0,16,0,0,0,0,0,0,0,0,0,0,32,16,24,0,8,24,0,24,8,0,16,24,0,0,0,24,0,24,0,0,10,6,6,7,18,7,14,12,13,6,7,7,12,10,12,12,7,4,10,13,12,7,6,6,11,10,11,4,6,7,7,9,6,10,11,10,6,10,20,8,7,18,10,9,7,13,5,13,9,15,12,7,6,7,8,7,11,8,9,10,12,5,16,8,6,13,8,6,8,6,10,7,13,12,7,17,8,11,6,8,12,2,12,7,11,6,6,8,6,4,10,15,9,6,7,11,12,11,9,10
24,0,0,0,24,32,0,24,0,0,0,32,0,0,16,0,40,24,16,0,32,8,0,24,0,0,0,8,1e+08,40,0,16,24,16,32,0,0,24,0,0,0,24,0,24,8,16,40,0,0,0,40,24,0,0,24,0,24,24,32,24,24,56,32,40,40,24,0,0,24,0,0,24,0,0,24,0,0,8,24,24,8,24,0,24,24,0,0,16,40,0,32,0,0,0,0,24,0,8,0,8,6,6,11,10,6,9,20,9,9,12,8,16,10,14,14,7,12,12,8,4,7,8,9,9,6,10,15,11,12,7,7,11,11,9,8,7,11,11,4,9,8,17,9,10,7,5,8,13,9,8,7,4,14,9,8,9,4,10,11,11,4,3,8,14,11,16,10,11,7,9,8,13,10,7,11,9,7,6,9,7,7,9,10,7,8,11,12,12,10,12,9,3,14,7,15,7,8,7,5,7
24,24,32,0,24,24,0,24,0,0,40,48,0,48,0,56,24,0,24,16,24,0,32,24,0,0,32,24,40,1e+08,0,0,40,24,24,0,32,24,32,32,0,24,0,24,0,16,64,0,56,0,56,32,0,0,56,0,40,0,32,56,56,48,24,48,64,64,8,16,72,24,56,56,0,32,24,0,0,0,32,0,0,0,24,24,24,32,16,0,48,0,40,32,0,0,0,48,32,24,0,0,10,10,7,6,13,15,12,7,16,9,8,9,14,5,3,10,15,9,4,7,9,10,3,15,9,9,8,5,10,11,5,12,5,18,15,12,8,5,13,10,14,9,13,10,12,11,15,6,5,11,15,19,4,6,11,16,18,4,8,8,16,10,16,11,6,7,15,4,9,9,12,8,13,9,8,18,15,17,13,8,11,4,12,20,7,7,8,6,7,9,14,10,12,10,10,11,13,8,16,9
8,0,0,8,48,0,0,40,32,40,32,24,72,0,0,0,8,0,16,8,48,8,0,32,40,8,0,0,0,0,1e+08,0,16,0,0,40,16,0,0,0,0,48,48,40,0,0,0,72,0,40,0,8,40,32,0,16,0,48,0,0,0,0,40,32,0,0,72,40,0,0,0,0,48,8,32,32,8,0,0,0,0,40,8,16,56,8,24,48,0,56,0,0,56,0,0,24,0,0,0,0,7,15,19,12,8,5,17,9,11,20,9,15,9,14,9,12,8,14,10,8,5,8,10,8,6,11,6,20,8,5,8,8,14,7,19,13,7,6,6,9,5,12,4,5,9,10,9,18,10,10,11,5,3,15,13,5,5,6,11,10,8,8,9,9,3,5,7,19,10,7,11,10,4,10,5,7,6,7,8,5,7,13,15,10,12,12,8,12,6,7,13,9,14,10,9,10,7,19,9,11
0,0,24,0,0,0,40,0,0,24,24,24,0,0,16,24,0,24,32,0,0,24,24,0,24,0,0,0,16,0,0,1e+08,24,0,8,0,24,24,24,24,24,0,48,24,0,0,40,24,24,0,40,24,24,24,24,48,16,24,40,24,24,0,0,24,0,24,0,24,24,24,24,40,48,48,40,0,0,24,24,24,24,24,0,32,16,24,24,40,24,32,0,24,0,24,8,0,24,0,0,32,8,11,13,10,11,8,14,16,12,10,9,8,7,12,11,13,16,15,12,11,4,8,14,13,7,6,12,12,7,11,14,7,7,8,12,11,14,5,7,7,10,8,12,11,10,14,10,7,11,9,13,7,7,14,14,15,8,11,19,9,14,12,4,8,11,12,9,12,12,8,14,9,6,7,20,14,12,15,5,16,15,4,14,6,17,10,8,9,9,9,10,5,12,10,11,14,11,13,10,7
0,0,40,0,32,24,40,40,16,32,40,24,0,16,0,56,0,16,0,0,56,0,0,0,0,0,0,0,24,40,16,24,1e+08,0,24,0,48,40,40,0,0,24,56,40,0,16,64,40,64,0,56,24,16,32,24,48,40,64,0,24,64,24,24,56,40,72,48,56,96,40,40,56,56,40,56,0,0,40,72,56,0,64,0,24,24,40,16,0,24,40,0,0,48,40,0,40,0,0,0,16,10,13,12,12,9,12,14,11,14,14,8,13,7,12,5,11,8,15,6,9,10,10,11,15,10,8,3,13,10,9,6,12,5,12,14,15,7,5,4,8,16,8,6,7,16,9,12,8,8,8,11,18,6,12,13,15,13,7,13,11,12,12,13,9,4,7,14,10,7,9,7,12,7,8,6,16,10,13,13,12,13,6,15,15,13,8,13,8,9,11,10,8,12,7,8,11,12,15,19,11
56,8,24,32,24,56,0,24,0,8,32,32,8,0,0,24,0,24,40,16,32,0,0,24,0,0,0,8,16,24,0,0,0,1e+08,0,0,0,8,0,8,0,0,8,24,56,32,0,0,24,32,24,0,0,0,24,0,72,0,0,0,0,0,40,0,0,24,0,0,0,24,24,32,0,0,8,8,56,0,24,0,40,0,32,8,8,8,0,8,32,0,0,0,0,0,32,0,0,48,48,8,9,11,15,17,5,16,17,18,13,19,12,19,10,6,12,12,13,16,15,14,6,6,13,10,11,7,20,20,12,5,15,12,18,8,9,8,15,21,7,14,8,14,14,10,10,10,12,15,17,8,13,8,12,12,8,13,12,16,11,14,4,14,13,12,15,17,13,18,9,11,11,14,7,13,18,11,14,8,8,8,11,16,14,9,16,14,17,14,16,17,13,2,10,10,19,10,16,6,9,9
0,0,0,0,0,24,0,24,0,0,0,0,8,0,32,0,0,0,0,24,0,0,0,0,0,0,0,24,32,24,0,8,24,0,1e+08,0,0,0,0,0,24,0,0,8,0,0,24,0,0,24,24,24,0,0,24,0,24,24,0,24,24,24,24,24,24,24,0,0,24,0,0,24,0,0,24,24,16,0,0,24,0,24,40,24,24,0,24,0,0,0,40,0,0,0,32,24,24,0,16,0,9,8,7,6,17,6,5,16,14,7,17,12,12,11,19,11,8,11,19,11,19,14,14,10,11,9,9,7,12,9,16,14,5,10,13,10,20,16,28,10,14,9,14,10,10,10,5,5,15,7,8,8,10,10,12,9,12,16,11,14,13,12,7,17,10,13,10,11,7,11,9,10,19,15,13,16,15,9,8,8,10,11,11,8,10,12,9,12,10,14,9,21,12,6,16,9,8,10,8,7
0,0,16,0,64,24,0,40,0,32,32,0,40,16,0,0,0,0,16,0,40,0,0,32,40,0,8,0,0,0,40,0,0,0,0,1e+08,0,0,0,0,0,24,40,0,0,0,0,40,0,40,0,0,56,32,8,0,0,64,8,8,0,0,40,48,0,8,40,40,0,0,0,0,40,0,32,40,0,8,0,16,0,56,0,40,40,0,24,48,0,40,24,16,32,16,40,24,0,24,8,16,12,14,13,8,9,6,13,10,12,24,10,15,4,9,5,9,11,10,10,7,5,10,12,9,10,10,10,20,9,11,6,9,16,12,19,14,9,10,4,10,6,8,8,6,13,7,10,14,8,11,18,7,7,12,9,9,7,13,10,10,5,14,4,3,7,6,11,18,14,10,13,13,5,15,5,10,6,6,18,5,12,13,18,12,13,12,20,9,9,4,11,8,12,9,3,17,7,21,11,7
0,24,40,0,0,16,48,16,16,32,0,24,0,0,0,48,0,0,0,0,0,16,16,0,0,0,48,0,0,32,16,24,48,0,0,0,1e+08,40,56,0,0,0,16,48,8,0,32,0,48,0,32,0,16,32,40,48,0,0,24,40,48,0,0,32,0,48,0,0,48,48,48,40,48,48,0,0,0,48,48,48,0,0,24,0,0,40,0,0,24,0,0,48,0,48,8,0,40,0,0,0,6,9,13,15,10,5,16,12,11,13,5,7,10,19,8,13,5,12,5,6,7,8,12,11,10,9,10,12,5,9,5,8,9,7,12,15,9,4,9,14,12,12,9,6,14,12,12,10,5,6,7,5,9,15,14,15,6,10,18,14,14,10,7,6,3,5,17,11,5,6,11,11,7,11,4,15,13,14,5,13,13,4,10,4,17,9,6,9,10,9,8,7,14,6,7,9,11,18,11,9
48,24,64,0,0,0,40,0,0,32,0,48,0,0,0,40,24,24,8,0,8,0,0,48,0,0,0,8,24,24,0,24,40,8,0,0,40,1e+08,40,8,0,24,40,72,24,16,32,64,40,24,32,0,0,32,0,40,0,40,48,0,40,0,8,48,24,40,24,40,40,48,40,40,40,40,32,24,24,40,40,40,8,40,24,0,0,40,0,8,48,40,24,0,16,40,24,24,40,0,24,0,4,13,16,10,10,6,17,12,14,13,11,9,11,20,10,17,14,16,7,7,6,9,6,14,8,8,9,13,5,9,10,9,10,5,14,10,9,9,8,8,13,12,10,6,11,14,12,12,7,11,7,5,8,14,14,13,9,3,22,14,13,10,10,9,8,10,8,9,8,10,14,10,9,9,6,15,12,14,9,13,12,2,14,12,17,12,7,8,7,8,9,5,16,10,7,10,17,16,10,8
0,24,40,0,0,16,48,0,16,32,0,24,0,0,24,48,0,0,0,0,0,16,48,0,32,0,0,32,0,32,0,24,40,0,0,0,56,40,1e+08,24,24,0,0,40,0,0,32,0,48,0,32,0,16,32,40,40,0,0,24,0,48,0,0,32,0,48,0,0,40,48,48,40,40,48,0,0,0,48,48,48,0,0,24,0,0,56,0,0,24,0,0,40,0,48,0,0,40,0,0,0,9,11,12,11,8,4,13,12,9,10,4,7,8,10,5,10,3,10,6,5,4,8,9,8,3,7,3,11,4,6,6,6,4,5,10,12,8,5,7,10,8,9,8,4,10,13,8,6,7,5,6,3,4,8,15,12,5,3,18,10,11,7,6,6,3,9,9,11,4,3,8,6,9,6,3,12,12,15,5,10,12,3,13,4,14,7,8,3,6,5,9,4,15,4,5,10,7,10,8,7
0,24,0,0,0,0,0,0,0,16,0,16,0,32,24,0,0,0,16,0,8,24,48,24,24,24,32,56,0,32,0,24,0,8,0,0,0,8,24,1e+08,56,0,40,0,0,16,32,8,32,8,0,32,24,0,32,24,0,0,56,32,32,0,8,0,32,32,0,0,0,16,0,0,40,56,0,0,8,0,0,0,48,16,24,0,8,72,0,40,24,0,16,32,0,0,0,24,32,24,0,0,9,5,6,7,12,8,10,10,13,5,6,5,17,10,8,10,9,5,9,13,10,9,6,8,11,7,7,5,7,8,3,10,6,9,13,11,6,6,13,8,6,10,10,9,9,13,9,10,7,17,12,7,5,7,11,9,12,5,10,9,16,9,16,8,6,13,8,3,6,9,12,6,10,14,5,18,10,13,11,11,10,3,13,8,6,5,5,6,5,3,11,14,13,9,7,11,16,11,13,9
0,0,16,24,0,0,16,0,16,0,0,0,0,40,64,0,8,0,0,16,0,16,56,0,40,16,40,48,0,0,0,24,0,0,24,0,0,0,24,56,1e+08,16,0,0,0,0,0,0,8,0,0,40,24,16,0,40,0,0,24,40,0,16,0,0,32,0,0,0,0,0,8,8,24,32,0,8,0,0,0,0,24,0,0,0,0,24,0,24,0,16,16,0,16,0,0,0,24,0,0,0,9,6,5,4,17,6,7,11,10,4,10,6,7,4,10,8,6,3,12,13,8,8,6,6,8,9,6,1,17,8,7,7,2,10,12,8,7,12,24,6,10,8,10,6,11,10,6,6,11,11,15,8,4,3,9,7,12,3,6,8,13,5,4,8,5,8,5,4,8,5,7,7,15,9,8,15,6,11,7,8,13,4,10,5,10,5,8,5,5,4,12,11,8,5,2,13,7,9,9,10
24,0,0,24,24,0,0,24,40,24,24,32,16,0,0,0,8,0,16,16,24,32,0,40,32,48,0,0,24,24,48,0,24,0,0,24,0,24,0,0,16,1e+08,24,32,0,16,0,24,0,24,0,8,24,40,0,16,0,24,24,0,0,0,24,48,24,0,24,24,0,16,0,8,24,16,24,24,0,24,24,0,0,24,0,16,24,0,24,24,24,40,24,0,56,0,0,48,16,0,0,0,7,16,15,9,12,12,13,10,14,21,14,16,11,13,13,12,13,11,10,11,5,11,8,10,6,16,6,17,17,11,7,11,14,8,18,11,10,7,7,10,10,12,3,5,13,12,9,15,10,10,13,9,2,18,13,9,9,10,14,14,9,10,14,8,5,10,6,17,11,13,11,9,6,10,3,9,5,8,14,11,10,11,14,16,16,14,10,6,6,6,11,10,16,11,7,14,15,18,7,8
16,0,0,32,40,0,24,32,16,32,32,24,0,0,0,0,8,0,16,0,40,24,24,16,40,16,0,8,0,0,48,48,56,8,0,40,16,40,0,40,0,24,1e+08,40,0,0,0,40,0,40,0,0,40,32,0,72,0,40,24,0,0,0,40,32,0,0,40,40,16,40,0,0,96,24,32,8,8,40,40,40,24,40,8,0,40,16,0,64,0,40,0,24,48,40,0,24,0,0,0,0,6,12,12,11,15,5,16,10,11,20,8,13,6,10,10,11,6,13,13,12,5,5,9,7,6,11,5,15,12,7,4,8,10,6,18,14,10,6,5,5,6,7,6,5,11,11,9,9,7,12,12,7,4,12,11,9,4,6,15,14,6,6,10,9,4,6,9,16,11,8,12,12,4,14,7,8,7,7,7,11,8,11,16,6,15,9,9,8,6,7,11,9,8,8,5,13,15,16,8,8
40,24,56,0,24,0,40,0,0,32,24,56,0,0,8,64,24,40,24,16,64,0,0,24,0,0,0,0,24,24,40,24,40,24,8,0,48,72,40,0,0,32,40,1e+08,24,16,32,64,64,24,32,24,0,32,0,40,0,40,24,0,40,24,64,40,24,0,64,40,40,64,64,40,40,40,32,0,24,40,64,40,0,40,24,0,40,40,24,0,72,40,24,0,48,40,32,0,0,24,24,0,4,15,17,11,11,6,15,10,12,15,8,13,12,20,8,12,12,16,8,6,5,8,10,12,7,10,11,16,5,10,9,5,10,7,16,12,10,7,3,12,14,13,14,3,13,11,13,6,4,8,7,7,8,14,13,11,9,8,19,14,8,8,7,10,7,9,7,13,9,10,8,10,8,3,7,13,9,14,12,11,10,5,13,10,18,11,10,8,6,9,10,8,13,8,7,9,12,16,8,9
24,40,24,32,0,32,0,0,0,0,16,24,8,0,0,0,0,24,16,0,0,16,0,24,0,0,0,0,8,0,0,0,0,56,0,0,8,24,0,0,0,0,0,24,1e+08,32,0,24,0,32,0,0,0,0,0,0,40,0,0,0,0,0,16,0,0,0,24,0,0,24,24,16,0,0,16,32,88,0,0,0,32,0,24,16,0,0,0,0,0,0,0,0,16,0,32,0,0,24,64,16,10,8,13,16,8,12,12,17,15,15,13,13,12,12,7,11,11,15,19,11,6,8,14,12,7,10,21,21,13,5,14,12,22,9,9,8,16,21,6,14,9,17,14,11,13,14,10,17,14,7,12,10,15,11,8,11,12,17,12,22,4,15,9,11,15,17,13,18,7,9,10,16,8,8,18,10,13,7,8,7,12,16,15,9,19,15,16,14,20,19,12,3,10,11,17,10,12,8,11,9
40,0,0,56,16,32,24,0,0,0,0,16,0,0,0,0,0,24,0,0,0,0,0,16,0,16,0,0,16,16,0,0,16,32,0,0,0,16,0,16,0,16,0,16,32,1e+08,16,0,0,0,16,24,0,0,0,0,48,24,24,8,0,0,0,16,56,0,0,48,16,24,0,0,0,0,16,32,32,0,0,40,32,40,0,48,0,0,48,0,16,0,48,40,0,16,32,40,24,40,32,16,11,12,12,16,12,19,14,11,15,17,11,16,9,12,7,14,22,14,9,9,7,8,10,14,13,17,12,24,12,15,12,18,16,12,9,10,13,17,7,12,14,14,12,12,14,12,11,18,14,8,14,16,12,10,10,12,20,12,7,17,10,11,23,15,9,15,16,17,7,16,11,18,8,10,12,6,8,7,19,13,12,16,12,16,17,14,20,17,15,14,15,4,15,14,10,10,16,8,18,9
0,24,32,0,24,24,32,24,0,0,16,32,0,16,0,32,24,24,0,0,24,0,8,0,0,0,32,0,40,64,0,40,64,0,24,0,32,32,32,32,0,0,0,32,0,16,1e+08,0,56,0,88,80,0,32,80,32,32,24,24,80,56,48,24,48,32,64,8,16,64,40,32,56,32,32,24,0,0,40,64,32,0,24,24,24,40,32,40,0,24,16,24,32,0,32,0,24,32,0,0,0,12,11,10,9,11,17,11,12,14,11,8,10,15,10,5,11,18,10,7,9,7,13,7,14,5,9,11,11,13,15,13,11,6,15,10,17,11,6,9,16,17,7,10,14,14,12,16,5,6,9,16,18,8,12,12,19,13,12,13,11,19,9,11,15,9,11,14,9,11,11,12,10,9,9,14,15,14,18,12,15,17,3,13,18,18,10,11,7,8,10,11,7,17,9,12,13,15,13,14,12
0,24,0,0,48,0,48,32,0,32,32,24,0,0,0,0,0,0,16,0,56,0,0,24,40,0,0,8,0,0,72,24,40,0,0,40,0,64,0,8,0,24,40,64,24,0,0,1e+08,0,24,32,0,0,32,0,40,0,48,0,0,0,0,40,32,0,0,80,40,0,48,0,0,40,0,32,24,24,64,56,48,8,40,0,0,48,0,0,48,24,48,0,0,48,56,24,24,0,8,24,0,4,13,13,9,10,4,17,11,9,17,7,15,11,13,1,11,6,13,8,4,5,6,7,8,3,10,5,15,4,5,7,5,10,5,19,15,6,8,4,9,8,13,6,3,9,10,7,13,7,4,4,5,5,12,7,7,5,8,13,14,6,8,10,8,3,5,4,15,8,5,5,8,6,5,4,8,7,8,8,6,7,7,18,6,13,9,8,10,5,9,9,7,11,5,5,10,6,15,6,14
24,24,72,8,24,24,56,24,0,0,24,48,0,40,0,80,0,24,24,16,24,0,0,24,0,0,72,0,0,56,0,24,64,24,0,0,48,40,48,32,8,0,0,64,0,0,56,0,1e+08,0,56,40,0,0,64,40,24,0,24,64,72,24,24,24,32,80,8,0,40,72,96,64,0,48,0,0,0,64,80,48,0,0,48,0,0,40,0,0,48,0,0,40,0,56,24,0,48,24,0,0,6,6,10,8,9,5,13,10,9,10,4,7,6,8,5,12,4,12,5,8,5,6,5,8,4,2,7,7,4,5,5,4,6,8,11,11,9,6,7,13,9,7,7,4,8,9,12,3,5,7,10,3,6,8,11,13,5,3,14,13,13,8,5,9,5,8,10,7,3,5,11,7,5,8,4,14,11,13,4,11,8,4,12,7,12,6,6,6,6,7,9,3,15,7,8,10,7,13,8,10
64,48,24,40,40,0,0,24,0,8,48,32,48,0,0,0,8,24,56,16,40,0,0,64,40,8,0,0,0,0,40,0,0,32,24,40,0,24,0,8,0,24,40,24,32,0,0,24,0,1e+08,0,8,32,0,0,8,40,0,0,0,0,0,48,0,0,0,64,40,0,24,24,0,8,8,32,56,40,0,0,0,32,0,56,16,40,8,24,40,24,40,0,0,48,0,72,24,0,24,72,0,8,12,14,8,10,8,10,10,9,19,12,14,11,11,12,13,8,19,15,12,4,7,9,10,10,8,8,15,10,6,13,10,16,8,16,10,14,11,6,11,9,7,10,8,8,12,13,14,13,10,11,4,4,10,12,7,10,13,17,13,5,14,8,9,11,11,6,20,11,7,11,11,10,16,15,8,14,7,9,7,6,11,20,12,13,11,17,10,9,14,11,8,11,10,16,13,14,16,9,8
0,24,32,0,24,24,32,24,0,32,32,32,0,16,0,56,24,32,24,16,24,0,8,0,0,0,0,0,40,56,0,40,56,24,24,0,32,32,32,0,0,0,0,32,0,16,88,32,56,0,1e+08,24,0,32,80,32,32,24,24,48,56,48,24,48,32,64,8,16,56,40,32,56,32,32,24,0,0,40,56,32,0,24,24,24,40,32,40,0,48,16,24,32,0,32,0,24,32,24,0,0,11,17,11,11,10,15,13,11,14,15,7,10,13,8,5,12,18,12,6,11,7,13,8,14,5,9,11,12,13,14,13,11,7,15,12,18,11,5,7,16,18,8,10,12,16,13,15,6,7,9,14,18,7,13,12,19,13,12,15,11,21,11,11,13,9,9,12,10,12,11,10,9,10,10,14,14,16,17,10,15,17,5,15,16,20,9,11,7,6,10,11,9,17,9,13,15,15,13,15,10
8,24,0,32,0,0,0,0,0,8,0,32,0,40,0,0,24,24,0,8,0,8,32,8,8,8,40,24,24,32,8,24,24,0,24,0,0,0,0,32,40,8,0,24,0,24,80,0,40,8,24,1e+08,0,0,64,8,0,24,24,88,64,48,0,24,48,64,0,24,24,0,0,64,8,48,48,8,8,8,0,24,0,24,32,48,40,40,48,0,0,24,56,40,0,0,0,24,72,0,0,0,10,5,7,6,14,11,8,8,9,6,5,9,18,9,15,9,16,5,9,10,10,11,7,12,9,6,9,6,12,8,12,8,6,10,16,9,10,6,15,9,10,9,13,16,9,9,11,5,7,13,16,6,5,8,10,12,10,10,8,10,16,11,7,11,8,13,8,8,9,10,13,9,11,9,14,15,12,15,8,13,13,4,13,10,8,15,8,7,9,7,14,9,12,7,12,13,11,10,12,6
32,0,16,32,32,24,24,40,16,0,32,0,32,0,24,0,0,0,16,0,32,24,24,32,56,0,8,0,0,0,40,24,16,0,0,56,16,0,16,24,24,24,40,0,0,0,0,0,0,32,0,0,1e+08,24,8,40,32,16,24,0,0,24,32,16,0,0,32,0,16,0,0,8,40,24,0,32,32,8,0,0,56,0,0,16,32,24,24,56,0,0,24,40,72,16,32,24,0,24,40,0,12,12,14,8,9,5,12,8,11,22,10,15,10,6,11,12,8,13,14,9,4,15,11,7,8,10,10,15,9,7,8,11,16,11,14,13,8,8,4,10,7,6,8,6,13,10,14,16,10,11,21,5,5,13,13,8,6,8,11,12,3,15,8,12,3,10,14,22,12,9,10,15,4,15,7,7,6,6,14,9,16,16,18,9,11,10,27,11,8,7,14,7,10,11,5,18,10,14,12,9
0,0,32,0,32,24,32,24,40,32,32,24,16,16,0,40,0,0,0,0,32,32,0,0,8,16,0,0,0,0,32,24,32,0,0,32,32,32,32,0,16,40,32,32,0,0,32,32,0,0,32,0,24,1e+08,0,32,0,32,0,0,40,24,32,48,0,0,32,32,32,32,32,40,32,32,32,0,0,32,32,32,0,32,0,0,32,48,0,0,24,32,0,0,64,40,0,24,16,0,0,0,8,12,14,10,9,10,11,12,9,18,14,17,5,12,11,7,5,13,10,8,5,10,8,12,6,8,2,17,15,7,6,5,9,9,18,10,10,6,4,11,11,10,8,7,15,10,10,8,8,8,13,8,6,12,12,10,9,10,15,12,7,13,7,7,6,7,8,13,11,8,10,15,6,9,3,14,9,13,10,7,14,6,13,8,14,11,17,5,9,10,12,8,15,7,5,17,13,15,10,8
0,24,40,0,32,32,0,32,0,0,24,24,0,40,0,64,24,24,24,16,24,0,32,0,0,0,48,24,24,56,0,24,24,24,24,8,40,0,40,32,0,0,0,0,0,0,80,0,64,0,80,64,8,0,1e+08,0,24,8,32,96,64,48,24,24,32,64,0,0,56,24,64,88,0,40,48,0,0,16,24,8,0,8,24,56,40,40,24,0,24,16,40,40,0,8,0,32,40,32,8,24,11,8,10,7,12,7,11,9,11,10,5,9,16,8,8,9,14,11,8,7,9,13,9,11,9,5,12,6,8,10,13,6,6,12,16,15,10,6,12,11,9,10,15,14,10,11,12,8,6,12,15,6,8,8,11,12,9,14,7,7,18,13,6,6,7,10,11,8,11,10,12,9,8,6,15,18,12,17,8,10,15,8,12,10,7,10,9,8,11,6,14,8,14,8,16,13,10,11,11,7
16,0,40,16,0,16,56,16,32,32,0,24,0,0,0,40,8,0,0,16,40,48,40,16,24,16,0,0,0,0,16,48,48,0,0,0,48,40,40,24,40,16,72,40,0,0,32,40,40,8,32,8,40,32,0,1e+08,0,40,48,0,40,0,0,32,0,40,0,40,48,40,40,40,88,64,32,8,8,40,40,40,24,40,0,0,0,40,0,24,24,40,0,40,32,40,0,0,40,0,0,0,6,10,15,10,9,4,14,14,14,11,10,9,5,11,15,11,5,13,10,13,5,8,11,9,7,8,5,13,19,8,5,6,5,5,10,13,10,4,4,6,8,7,7,5,14,12,11,7,8,11,9,6,5,12,15,13,5,5,20,10,11,9,6,12,3,9,13,12,8,10,12,10,6,9,6,14,13,13,5,16,14,5,14,4,16,8,7,6,9,6,8,5,12,6,6,11,9,14,10,8
32,16,0,32,32,56,0,24,0,0,40,0,40,16,0,24,0,16,40,16,24,0,0,32,0,0,0,0,24,40,0,16,40,72,24,0,0,0,0,0,0,0,0,0,40,48,32,0,24,40,32,0,32,0,24,0,1e+08,24,8,40,24,24,40,24,40,24,8,16,40,8,0,40,0,0,40,48,40,0,24,16,32,40,0,64,32,0,40,0,24,0,0,0,0,0,40,40,0,48,40,24,17,13,14,13,7,22,14,12,14,16,11,16,10,5,7,11,20,12,12,13,9,8,13,12,11,10,16,22,14,14,20,16,15,16,10,11,14,12,7,14,11,14,10,16,15,11,17,16,16,8,20,18,10,13,13,13,18,17,11,14,11,15,11,10,14,17,16,20,8,10,12,15,9,16,17,10,14,9,12,15,15,12,13,18,12,13,19,13,15,15,12,3,13,13,22,12,14,10,16,10
0,0,16,24,56,32,48,24,0,32,32,24,0,0,0,0,0,16,16,0,48,0,0,0,40,0,8,0,24,0,48,24,64,0,24,64,0,40,0,0,0,24,40,40,0,24,24,48,0,0,24,24,16,32,8,40,24,1e+08,8,24,24,24,40,56,24,32,48,64,24,48,0,0,40,0,56,0,0,48,48,88,0,80,0,40,64,0,24,56,24,48,40,16,32,56,0,64,24,16,8,16,14,11,10,10,11,6,10,10,14,19,9,16,4,11,4,8,11,11,8,7,6,12,7,11,12,9,3,15,10,11,6,10,9,11,20,14,9,9,4,6,13,3,5,5,14,9,11,6,10,9,10,9,6,8,7,12,7,7,13,13,7,17,4,9,5,7,11,14,10,12,13,13,4,13,4,9,8,8,16,11,16,6,18,9,13,11,18,8,6,11,11,7,13,6,4,14,10,14,8,7
24,24,32,0,8,0,56,0,0,0,0,32,0,24,0,24,0,8,0,0,0,24,56,24,32,24,32,0,32,32,0,40,0,0,0,8,24,48,24,56,24,24,24,24,0,24,24,0,24,0,24,24,24,0,32,48,8,8,1e+08,32,24,0,0,24,32,24,0,0,24,32,24,24,24,48,8,0,0,8,0,24,32,8,24,8,0,48,8,24,56,0,8,48,0,32,0,32,24,32,8,8,9,6,12,7,16,8,16,9,12,12,7,8,11,15,6,15,13,9,9,8,5,8,10,11,9,10,11,9,4,9,2,9,6,9,17,15,9,4,11,10,8,12,12,9,6,12,10,12,5,9,11,9,9,8,12,10,11,7,13,7,15,9,10,9,6,13,13,7,8,8,10,7,7,6,6,14,11,15,11,9,8,9,13,8,10,6,6,11,10,4,12,5,16,7,4,9,8,10,11,9
0,24,8,0,32,24,0,24,0,0,48,0,0,40,0,64,24,24,24,0,24,0,32,0,0,0,48,24,24,56,0,24,24,0,24,8,40,0,0,32,40,0,0,0,0,8,80,0,64,0,48,88,0,0,96,0,40,24,32,1e+08,64,48,24,24,48,64,0,0,56,0,40,88,0,40,56,0,0,16,24,8,0,24,24,56,40,40,32,0,0,16,24,40,0,8,0,32,40,8,8,24,14,6,9,6,14,7,12,10,11,9,5,8,15,7,4,9,15,7,8,9,7,10,10,11,10,6,14,6,7,11,11,9,6,12,16,16,10,6,13,9,9,9,13,17,9,11,10,7,6,13,15,11,9,8,10,13,11,15,7,9,19,13,5,6,10,11,10,10,9,8,11,8,9,9,17,18,13,18,7,12,14,8,13,8,8,9,9,10,13,8,14,9,15,6,16,15,9,11,12,7
0,32,40,0,24,24,48,24,0,0,0,24,0,0,0,56,0,0,0,0,24,0,0,0,16,0,48,0,24,56,0,24,64,0,24,0,48,40,48,32,0,0,0,40,0,0,56,0,72,0,56,64,0,40,64,40,24,24,24,64,1e+08,24,24,56,24,72,0,0,64,48,48,64,0,48,24,0,0,48,72,48,0,24,24,24,24,40,0,0,24,0,0,40,0,56,0,24,40,0,0,0,8,7,13,8,13,6,13,11,10,7,5,10,11,14,5,12,4,11,5,7,6,8,6,10,6,4,5,10,5,7,4,6,7,8,10,12,7,4,7,14,10,10,7,6,11,13,12,6,6,9,11,2,10,10,14,13,5,5,13,12,16,11,5,13,4,11,11,7,7,7,11,9,6,10,4,17,10,19,8,11,12,3,13,6,15,8,9,11,9,7,12,4,20,8,7,10,12,14,5,11
0,0,16,0,24,48,0,48,24,0,0,32,0,0,0,0,40,24,0,0,24,0,0,0,8,8,8,0,56,48,0,0,24,0,24,0,0,0,0,0,16,0,0,24,0,0,48,0,24,0,48,48,24,24,48,0,24,24,0,48,24,1e+08,24,48,48,24,0,0,24,0,0,32,0,0,24,0,0,8,24,0,0,24,0,24,24,0,24,0,0,16,32,0,24,0,0,24,0,0,8,0,9,8,7,9,5,8,10,7,9,8,12,9,15,9,13,5,13,3,7,6,11,11,10,8,6,6,9,5,10,14,14,6,5,7,5,10,8,6,9,4,8,7,12,15,8,4,11,8,9,7,9,12,6,9,6,10,6,8,5,5,11,9,8,17,8,8,7,7,14,9,7,10,8,9,16,12,12,9,10,9,10,5,4,9,2,10,15,9,4,10,8,9,6,8,12,9,18,10,5,9
24,24,24,0,64,24,0,48,0,32,80,40,48,0,0,24,0,24,56,16,72,0,0,32,40,0,0,8,32,24,40,0,24,40,24,40,0,8,0,8,0,24,40,64,16,0,24,40,24,48,24,0,32,32,24,0,40,40,0,24,24,24,1e+08,48,0,24,40,40,24,24,24,24,40,0,56,24,16,0,24,0,8,40,24,16,72,8,24,40,32,40,0,0,32,0,40,48,0,24,16,24,10,16,17,9,10,9,17,15,13,26,12,19,10,11,12,14,8,17,17,10,5,8,10,9,9,9,15,17,8,8,10,12,15,11,19,14,19,10,8,12,10,11,9,6,10,11,11,11,13,7,11,8,8,17,11,12,14,16,19,13,9,12,6,11,13,17,7,19,12,11,11,9,10,11,15,15,15,10,9,7,8,11,20,13,14,12,13,11,9,13,10,9,13,7,15,13,10,17,9,9
24,0,32,0,48,32,32,32,16,32,48,40,0,0,0,32,24,24,0,0,48,0,0,24,0,0,8,0,40,48,32,24,56,0,24,48,32,48,32,0,0,48,32,40,0,16,48,32,24,0,48,24,16,48,24,32,24,56,24,24,56,48,48,1e+08,48,24,32,32,56,32,32,48,32,32,48,0,0,40,56,32,0,56,0,24,48,32,0,0,32,32,24,0,48,32,0,48,0,16,8,0,10,14,12,10,11,6,13,10,14,15,14,15,10,13,7,13,12,15,5,8,7,19,8,13,7,7,7,14,9,7,7,8,10,10,17,12,7,5,4,10,16,8,9,5,18,12,15,7,5,8,14,8,6,12,9,14,12,8,17,12,7,12,6,12,7,9,12,12,12,10,11,15,6,9,8,14,10,14,17,11,16,4,13,11,12,11,22,5,8,10,10,8,13,9,7,17,14,15,9,8
24,24,0,24,16,24,0,0,0,0,0,24,0,48,0,0,24,16,0,0,0,0,32,24,0,0,32,24,40,64,0,0,40,0,24,0,0,24,0,32,32,24,0,24,0,56,32,0,32,0,32,48,0,0,32,0,40,24,32,48,24,48,0,48,1e+08,64,8,40,40,8,0,0,0,0,32,0,0,0,0,40,0,40,24,40,24,32,40,0,24,0,56,32,0,0,0,64,48,0,0,16,15,11,7,4,19,14,12,8,15,5,8,8,14,8,4,14,17,4,5,8,12,9,2,15,13,13,8,5,7,11,7,16,6,16,15,11,10,5,18,7,16,10,11,9,13,11,11,6,6,10,13,16,5,4,9,13,21,5,9,11,17,11,17,9,9,11,14,4,10,11,13,12,12,11,6,16,10,14,15,15,11,3,13,18,6,10,9,8,7,10,12,13,13,10,7,14,14,14,20,10
0,24,40,0,32,24,48,24,0,0,32,24,0,48,0,72,0,0,0,0,24,0,8,0,0,0,56,0,24,64,0,24,72,24,24,8,48,40,48,32,0,0,0,0,0,0,64,0,80,0,64,64,0,0,64,40,24,32,24,64,72,24,24,24,64,1e+08,8,8,72,48,56,64,0,48,24,0,0,56,80,48,0,24,24,24,24,40,0,8,24,0,0,40,0,56,0,24,40,0,0,0,9,6,8,6,11,14,12,13,11,8,5,11,9,9,5,11,9,10,5,10,8,9,6,14,5,6,9,8,11,9,5,11,6,18,14,15,7,7,11,13,13,7,9,11,9,11,13,5,8,10,13,12,6,10,10,16,14,3,11,12,21,7,10,11,4,11,14,7,4,6,13,8,11,13,6,14,14,16,14,12,13,3,14,14,13,10,11,10,6,9,13,9,17,9,10,11,10,12,14,9
0,24,8,0,48,0,0,24,0,32,32,24,0,8,0,0,0,0,16,0,56,0,8,24,40,0,8,0,0,8,72,0,48,0,0,40,0,24,0,0,0,24,40,64,24,0,8,80,8,64,8,0,32,32,0,0,8,48,0,0,0,0,40,32,8,8,1e+08,48,8,8,0,0,40,0,32,24,24,56,72,0,0,40,0,16,48,0,32,48,0,48,0,0,48,0,24,24,0,0,24,0,9,16,15,9,10,11,11,12,12,18,8,15,6,11,2,12,10,13,9,7,2,8,6,11,5,11,4,18,12,6,9,12,14,13,18,14,5,8,6,12,13,4,5,5,8,11,9,10,7,6,11,13,3,15,9,10,11,6,10,14,10,8,9,12,4,6,8,17,9,6,8,10,13,8,8,8,11,6,15,6,10,9,15,17,11,9,12,6,6,10,13,10,14,8,5,14,10,19,15,12
0,0,0,24,40,0,64,24,0,32,40,24,0,32,0,0,0,24,16,8,40,0,0,0,40,0,0,0,0,16,40,24,56,0,0,40,0,40,0,0,0,24,40,40,0,48,16,40,0,40,16,24,0,32,0,40,16,64,0,0,0,0,40,32,40,8,48,1e+08,16,48,0,0,40,0,32,0,0,40,48,64,0,56,0,24,40,0,48,40,0,40,24,24,32,40,0,24,24,0,0,0,11,12,9,9,16,14,10,12,10,21,7,15,4,9,6,9,9,11,8,8,4,7,7,10,7,13,5,17,12,11,7,14,11,13,20,14,11,6,7,10,13,2,6,6,11,10,9,5,9,4,11,21,5,14,10,11,13,11,14,14,13,6,12,16,7,6,11,17,9,12,6,10,7,7,5,7,6,8,15,12,8,8,16,13,22,10,15,11,8,9,13,8,15,7,7,13,10,13,17,10
0,24,40,0,24,32,40,24,16,32,16,24,0,16,0,40,0,16,0,0,24,16,16,0,0,0,0,0,24,72,0,24,96,0,24,0,48,40,40,0,0,0,16,40,0,16,64,0,40,0,56,24,16,32,56,48,40,24,24,56,64,24,24,56,40,72,8,16,1e+08,40,40,56,56,40,32,0,0,40,72,64,0,24,24,24,24,40,16,0,24,0,0,56,0,40,0,40,40,0,0,0,12,14,10,12,10,12,11,10,14,11,6,10,9,10,5,9,8,12,4,8,9,9,6,13,11,8,6,11,10,11,6,12,4,12,10,15,9,4,9,10,15,4,6,6,14,12,12,5,8,6,10,20,6,9,12,17,12,5,15,11,15,10,11,13,3,8,18,8,6,7,10,12,9,9,4,14,15,15,11,14,14,3,13,14,12,9,11,5,8,10,10,4,15,7,10,11,12,12,18,10
40,24,56,0,32,0,48,24,0,32,24,40,0,8,0,72,0,24,24,16,24,0,0,40,0,16,0,16,0,24,0,24,40,24,0,0,48,48,48,16,0,16,40,64,24,24,40,48,72,24,40,0,0,32,24,40,8,48,32,0,48,0,24,32,8,48,8,48,40,1e+08,72,64,40,48,40,0,24,48,72,48,16,48,24,8,0,40,8,0,56,48,0,0,0,48,24,24,40,40,24,8,7,14,12,10,8,11,14,12,10,15,8,8,9,12,2,10,10,13,7,10,7,9,7,9,9,8,9,10,5,8,7,10,5,9,12,14,7,7,6,10,10,9,8,6,11,12,11,8,6,7,6,9,8,13,13,12,11,11,17,13,16,11,13,10,6,8,7,9,4,9,8,6,6,5,5,17,11,13,10,10,11,5,14,12,23,9,7,5,7,6,8,6,18,8,8,8,8,13,11,8
24,48,72,8,24,0,56,24,0,0,24,48,0,0,0,80,0,24,24,16,24,0,0,24,0,0,72,0,0,56,0,24,40,24,0,0,48,40,48,0,8,0,0,64,24,0,32,0,96,24,32,0,0,32,64,40,0,0,24,40,48,0,24,32,0,56,0,0,40,72,1e+08,64,40,48,0,0,24,64,80,48,0,0,48,0,0,40,0,0,48,0,0,40,0,56,24,0,48,24,24,0,4,9,10,10,10,5,13,12,9,10,5,8,5,8,3,11,6,13,7,7,4,7,6,8,4,5,7,9,5,5,5,4,4,6,10,14,7,6,7,14,10,5,8,5,7,12,10,3,5,8,9,3,5,10,12,13,3,4,15,13,14,8,4,10,3,7,10,6,2,5,9,6,5,7,3,14,9,13,4,10,12,3,11,5,18,6,5,5,7,7,7,4,15,6,8,9,8,11,6,9
0,32,40,0,24,32,40,32,8,0,48,40,0,0,0,64,0,0,48,16,24,8,0,0,8,0,40,0,24,56,0,40,56,32,24,0,40,40,40,0,8,8,0,40,16,0,56,0,64,0,56,64,8,40,88,40,40,0,24,88,64,32,24,48,0,64,0,0,56,64,64,1e+08,40,40,48,0,0,40,64,40,0,0,24,48,40,40,24,0,48,16,0,40,8,40,0,24,48,24,0,24,10,10,12,10,10,13,14,14,12,12,7,10,13,10,12,9,10,13,9,8,6,9,10,11,3,5,14,10,12,8,13,5,6,10,11,14,13,6,9,13,11,9,9,15,12,12,12,7,10,7,13,6,7,11,13,15,8,16,14,11,17,14,4,7,9,13,10,12,8,6,11,11,4,9,20,17,13,16,3,11,16,6,12,8,17,13,7,8,10,11,10,5,14,6,19,14,10,12,7,7
16,0,40,16,40,0,56,16,16,32,32,24,0,0,24,40,8,0,16,16,40,24,24,16,24,16,0,0,0,0,48,48,56,0,0,40,48,40,40,40,24,24,96,40,0,0,32,40,0,8,32,8,40,32,0,88,0,40,24,0,0,0,40,32,0,0,40,40,56,40,40,40,1e+08,64,32,8,8,40,40,40,24,40,8,0,40,40,0,24,24,40,0,24,48,40,0,24,0,0,0,0,7,11,12,12,11,3,13,13,13,13,10,13,6,9,12,9,3,17,10,14,6,6,12,8,5,8,3,14,13,4,5,7,9,6,15,13,10,4,2,8,8,5,8,4,15,12,8,7,6,12,9,6,5,12,11,10,5,7,16,10,5,7,8,11,2,6,9,15,9,9,12,10,6,14,6,13,8,12,7,13,11,9,15,4,15,8,11,4,8,6,11,8,10,5,4,12,11,15,7,8
16,24,40,16,0,0,64,0,16,0,0,24,0,0,0,48,8,0,0,16,0,40,24,16,32,16,48,0,0,32,8,48,40,0,0,0,48,40,48,56,32,16,24,40,0,0,32,0,48,8,32,48,24,32,40,64,0,0,48,40,48,0,0,32,0,48,0,0,40,48,48,40,64,1e+08,0,8,8,48,48,48,24,0,24,0,0,40,0,24,24,16,0,64,0,48,0,0,56,0,0,0,6,5,10,8,14,7,12,14,10,8,7,8,8,10,16,13,6,12,9,11,4,8,11,12,4,6,6,12,15,6,5,8,6,7,9,12,12,3,8,14,9,6,8,7,9,16,11,7,7,10,10,5,6,11,15,13,3,6,16,11,13,8,5,9,2,10,12,9,6,7,12,7,6,10,4,14,11,15,4,12,12,6,11,5,18,10,6,7,9,4,11,5,13,6,5,12,8,12,7,7
0,24,0,0,64,24,0,48,0,32,48,24,0,0,0,0,0,16,24,0,56,0,0,0,32,0,0,0,24,24,32,40,56,8,24,32,0,32,0,0,0,24,32,32,16,16,24,32,0,32,24,48,0,32,48,32,40,56,8,56,24,24,56,48,32,24,32,32,32,40,0,48,32,0,1e+08,0,0,40,56,56,0,56,0,64,72,0,16,32,0,40,16,16,32,48,0,64,0,0,0,32,19,17,14,11,12,13,13,12,16,21,8,14,7,12,4,9,17,13,8,9,9,10,10,13,11,14,11,17,11,14,12,12,11,15,21,17,12,7,7,11,13,7,5,15,17,12,13,11,13,11,13,15,10,14,10,14,18,20,16,13,14,19,6,11,11,16,11,19,15,12,13,13,5,9,17,11,10,10,13,16,17,12,18,13,17,11,18,9,8,12,12,9,17,6,16,20,13,17,11,9
40,24,0,40,40,0,0,24,16,8,48,8,48,0,0,0,8,0,40,8,0,8,0,40,40,8,0,0,0,0,32,0,0,8,24,40,0,24,0,0,8,24,8,0,32,32,0,24,0,56,0,8,32,0,0,8,48,0,0,0,0,0,24,0,0,0,24,0,0,0,0,0,8,8,0,1e+08,48,0,0,0,32,0,8,16,40,8,24,40,0,8,0,0,16,0,64,24,8,0,72,24,11,10,18,11,6,13,14,16,12,18,11,18,12,9,12,15,15,16,16,12,5,10,13,11,9,10,11,14,10,10,12,12,20,11,16,10,17,12,7,15,7,11,13,10,9,17,12,19,16,7,16,8,8,14,14,7,14,13,13,13,8,13,7,9,12,15,8,22,13,9,12,13,11,16,17,10,16,9,9,7,10,14,19,12,12,14,16,13,11,13,12,4,13,14,17,12,12,14,8,11
64,40,24,40,0,32,0,0,0,8,0,32,48,0,0,0,8,24,24,24,0,0,0,56,0,8,0,0,0,0,8,0,0,56,16,0,0,24,0,8,0,0,8,24,88,32,0,24,0,40,0,8,32,0,0,8,40,0,0,0,0,0,16,0,0,0,24,0,0,24,24,0,8,8,0,48,1e+08,0,0,0,32,0,48,16,8,8,24,0,24,8,0,0,16,0,64,0,0,48,72,0,7,12,17,15,7,13,7,17,10,19,14,14,12,9,15,13,9,20,19,10,6,12,13,12,9,6,12,23,13,7,18,11,17,7,8,8,17,16,5,16,12,13,12,15,9,11,12,17,14,10,12,5,9,11,11,10,10,13,13,18,5,12,13,12,13,17,14,20,7,11,11,12,14,14,16,10,15,9,11,7,11,14,16,13,16,16,14,16,14,16,14,2,14,12,15,8,11,10,9,9
0,0,40,0,8,8,48,8,0,32,0,32,0,0,0,64,8,8,0,0,56,0,0,0,0,0,24,0,8,0,0,24,40,0,0,8,48,40,48,0,0,24,40,40,0,0,40,64,64,0,40,8,8,32,16,40,0,48,8,16,48,8,0,40,0,56,56,40,40,48,64,40,40,48,40,0,0,1e+08,56,48,0,40,0,8,8,40,8,0,24,72,16,8,32,64,0,8,40,8,8,8,10,11,13,10,8,6,10,11,10,14,8,9,9,12,4,10,13,13,8,7,4,13,11,8,10,4,8,14,7,11,11,8,7,9,16,14,8,6,5,7,11,6,8,8,10,9,9,8,5,10,9,5,7,14,13,11,6,7,13,13,14,12,2,6,6,6,8,11,9,8,9,8,7,5,9,14,13,14,8,11,14,9,14,8,15,9,7,3,9,6,11,7,13,5,5,11,11,14,7,6
24,0,64,0,24,24,48,24,0,40,32,48,0,8,0,72,0,24,24,16,72,0,8,0,0,0,8,0,24,32,0,24,72,24,0,0,48,40,48,0,0,24,40,64,0,0,64,56,80,0,56,0,0,32,24,40,24,48,0,24,72,24,24,56,0,80,72,48,72,72,80,64,40,48,56,0,0,56,1e+08,48,0,40,24,0,24,40,0,0,48,48,0,0,32,56,24,24,0,24,0,0,6,13,14,10,9,12,10,11,10,13,7,13,3,11,5,11,8,14,8,8,7,8,8,13,5,5,6,13,10,7,7,11,6,12,15,13,8,6,5,10,16,4,6,4,11,9,11,5,8,8,7,12,6,11,13,17,12,7,14,12,12,8,9,14,5,5,9,10,5,9,8,6,9,7,7,17,13,12,12,9,15,5,15,14,15,8,12,5,7,13,12,10,12,6,7,11,10,15,16,10
0,0,40,24,16,0,64,0,0,32,0,24,0,0,0,48,0,16,0,0,0,0,0,0,0,0,0,0,24,0,0,24,56,0,24,16,48,40,48,0,0,0,40,40,0,40,32,48,48,0,32,24,0,32,8,40,16,88,24,8,48,0,0,32,40,48,0,64,64,48,48,40,40,48,56,0,0,48,48,1e+08,0,80,0,40,24,40,40,0,24,48,40,16,0,56,0,40,64,0,0,16,11,10,12,10,11,7,10,11,15,10,7,10,3,12,5,10,12,11,5,6,7,10,6,14,14,8,3,13,9,12,7,11,5,10,13,13,10,5,6,6,15,3,9,6,12,11,12,5,9,11,11,15,5,9,14,12,10,6,17,11,12,12,8,13,4,6,11,8,6,11,13,11,7,8,5,12,11,13,13,14,14,6,12,8,15,10,13,7,9,10,9,4,15,5,4,15,11,12,12,6
32,0,0,32,0,32,32,0,0,0,0,0,32,0,0,0,0,0,8,0,8,24,32,32,32,24,0,32,8,0,0,24,0,40,0,0,0,8,0,48,24,0,24,0,32,32,0,8,0,32,0,0,56,0,0,24,32,0,32,0,0,0,8,0,0,0,0,0,0,16,0,0,24,24,0,32,32,0,0,0,1e+08,16,0,16,8,8,24,56,8,0,0,24,16,0,32,0,0,40,32,0,6,11,12,16,10,12,14,10,10,16,6,14,11,9,15,14,10,8,15,13,5,7,14,6,9,7,13,23,6,10,9,15,16,7,5,13,12,12,5,10,4,14,8,9,10,12,9,24,13,10,15,3,9,13,15,7,5,11,10,11,4,4,19,13,4,15,11,18,7,10,6,10,5,10,10,11,9,7,9,9,12,11,14,10,14,10,16,14,12,5,11,4,11,12,8,5,10,9,13,11
0,0,0,24,40,24,40,24,0,32,32,24,0,0,0,0,0,16,16,0,40,0,0,16,40,16,0,16,24,0,40,24,64,0,24,56,0,40,0,16,0,24,40,40,0,40,24,40,0,0,24,24,0,32,8,40,40,80,8,24,24,24,40,56,40,24,40,56,24,48,0,0,40,0,56,0,0,40,40,80,16,1e+08,0,40,56,0,40,40,24,40,40,16,32,48,0,80,24,16,0,16,13,14,11,13,11,11,12,8,16,18,8,16,11,14,4,10,14,12,7,9,10,12,8,13,13,12,5,16,8,14,6,13,10,9,20,15,10,7,4,6,13,10,6,7,17,11,9,12,10,11,11,17,7,9,7,10,13,9,15,14,9,15,13,10,5,6,10,15,9,13,10,14,5,9,6,11,8,8,17,13,12,6,18,10,13,11,17,8,6,12,10,11,15,8,5,15,12,14,13,11
32,40,48,8,24,0,0,24,0,8,24,32,0,24,0,48,8,24,24,16,24,0,24,32,0,8,24,24,0,24,8,0,0,32,40,0,24,24,24,24,0,0,8,24,24,0,24,0,48,56,24,32,0,0,24,0,0,0,24,24,24,0,24,0,24,24,0,0,24,24,48,24,8,24,0,8,48,0,24,0,0,0,1e+08,0,8,24,0,0,24,0,16,24,0,0,48,0,24,24,40,0,10,10,8,9,11,8,12,15,14,12,8,13,12,13,17,17,11,20,19,13,9,15,12,16,12,8,13,10,13,13,13,7,7,12,16,12,14,8,13,18,17,7,20,14,9,13,13,7,8,14,13,7,10,11,16,16,14,7,14,14,16,13,9,11,10,14,15,9,8,11,12,10,19,12,9,19,18,17,9,11,9,16,15,10,10,13,8,14,12,12,12,8,16,7,19,11,12,8,16,8
16,32,16,16,24,24,0,40,0,0,40,0,16,0,0,0,0,24,32,0,16,0,0,16,16,0,0,0,24,24,16,32,24,8,24,40,0,0,0,0,0,16,0,0,16,48,24,0,0,16,24,48,16,0,56,0,64,40,8,56,24,24,16,24,40,24,16,24,24,8,0,48,0,0,64,16,16,8,0,40,16,40,0,1e+08,56,0,64,16,0,16,48,16,16,16,16,64,24,24,24,48,19,13,12,10,9,13,11,9,14,21,7,17,9,7,6,12,19,13,9,10,8,12,11,11,13,12,13,16,10,13,17,10,18,15,18,16,11,11,6,12,10,7,9,15,17,13,16,16,13,11,21,15,9,12,11,11,16,20,12,13,9,18,6,11,11,15,12,21,13,13,16,13,6,15,18,10,9,9,17,13,17,15,19,14,14,11,27,13,9,11,14,6,14,9,16,19,15,16,14,8
8,0,0,8,72,24,0,48,0,40,48,8,48,0,0,0,8,16,24,0,80,0,0,32,40,8,0,8,24,24,56,16,24,8,24,40,0,0,0,8,0,24,40,40,0,0,40,48,0,40,40,40,32,32,40,0,32,64,0,40,24,24,72,48,24,24,48,40,24,0,0,40,40,0,72,40,8,8,24,24,8,56,8,56,1e+08,8,40,48,0,56,0,0,32,0,40,48,0,0,0,16,10,15,9,8,10,9,12,7,9,21,8,15,10,9,12,8,14,11,11,10,6,9,10,9,7,9,12,19,12,11,14,8,15,10,18,13,12,8,7,10,7,7,6,11,11,10,11,11,12,9,14,7,6,13,9,11,10,12,14,10,8,9,5,11,9,14,5,18,14,9,13,8,6,12,16,12,8,9,11,9,15,9,19,11,12,12,14,8,8,9,12,8,12,7,16,14,10,15,8,9
16,24,40,0,0,16,40,0,0,16,0,24,0,0,24,40,0,0,16,0,8,16,40,16,24,0,40,24,0,32,8,24,40,8,0,0,40,40,56,72,24,0,16,40,0,0,32,0,40,8,32,40,24,48,40,40,0,0,48,40,40,0,8,32,32,40,0,0,40,40,40,40,40,40,0,8,8,40,40,40,8,0,24,0,8,1e+08,0,24,24,0,0,56,0,48,0,0,40,0,0,0,9,5,10,9,9,6,11,15,12,6,6,7,7,9,10,9,5,11,9,8,4,7,9,10,7,6,6,9,12,6,6,7,4,9,8,10,8,6,8,12,8,9,8,6,10,16,13,5,7,13,11,5,7,7,11,12,7,2,16,10,13,9,8,7,3,8,10,8,5,6,15,6,8,15,2,13,11,16,7,14,13,2,12,6,12,6,8,4,7,5,9,3,14,10,6,12,15,11,7,8
24,0,0,48,32,0,24,24,0,0,24,24,24,24,0,0,24,40,16,0,24,0,0,24,24,0,0,0,0,16,24,24,16,0,24,24,0,0,0,0,0,24,0,24,0,48,40,0,0,24,40,48,24,0,24,0,40,24,8,32,0,24,24,0,40,0,32,48,16,8,0,24,0,0,16,24,24,8,0,40,24,40,0,64,40,0,1e+08,24,0,16,40,24,24,0,24,48,24,0,24,16,12,15,10,9,12,13,10,7,12,20,5,17,11,7,6,11,25,13,11,10,7,9,8,10,12,15,12,17,10,17,18,13,17,17,16,12,9,9,8,13,10,8,11,13,16,12,17,13,9,10,18,17,8,13,12,9,15,15,12,15,13,13,11,15,10,11,11,19,14,14,12,12,6,12,17,6,6,10,14,15,14,14,19,18,16,11,23,13,10,9,15,7,14,11,10,14,17,16,16,8
32,0,0,32,48,0,24,24,0,0,32,0,48,0,40,0,0,0,24,0,48,24,24,32,64,0,0,24,16,0,48,40,0,8,0,48,0,8,0,40,24,24,64,0,0,0,0,48,0,40,0,0,56,0,0,24,0,56,24,0,0,0,40,0,0,8,48,40,0,0,0,0,24,24,32,40,0,0,0,0,56,40,0,16,48,24,24,1e+08,16,48,0,24,32,0,40,24,0,0,48,0,6,8,13,5,11,4,10,10,7,18,7,14,2,7,9,11,7,11,14,7,2,3,10,4,9,8,10,16,6,6,7,7,17,10,14,10,6,12,4,9,2,3,7,5,7,10,10,12,9,7,13,2,5,11,12,5,6,8,12,9,3,4,3,9,4,9,5,17,13,7,10,9,5,16,6,7,7,3,9,9,6,11,17,9,11,8,15,8,10,5,12,7,8,9,4,9,15,15,7,10
48,40,48,0,24,0,24,24,0,24,24,64,0,0,16,48,0,24,40,16,32,0,0,48,0,24,0,8,40,48,0,24,24,32,0,0,24,48,24,24,0,24,0,72,0,16,24,24,48,24,48,0,0,24,24,24,24,24,56,0,24,0,32,32,24,24,0,0,24,56,48,48,24,24,0,0,24,24,48,24,8,24,24,0,0,24,0,16,1e+08,0,0,24,0,24,24,24,24,48,24,0,3,15,13,11,14,6,22,11,11,17,8,13,9,19,10,14,9,13,7,8,4,7,6,10,6,8,10,11,5,8,6,6,6,7,12,14,10,8,6,9,10,13,8,7,9,10,10,10,6,9,9,4,7,13,13,13,8,5,17,13,12,7,11,10,7,13,9,8,6,8,9,11,7,6,6,16,12,14,7,8,11,3,13,8,16,7,8,10,7,7,8,5,17,8,9,10,11,12,9,10
16,0,0,16,48,0,0,24,16,32,32,24,0,0,0,0,16,16,16,16,48,16,0,16,48,16,16,0,0,0,56,32,40,0,0,40,0,40,0,0,16,40,40,40,0,0,16,48,0,40,16,24,0,32,16,40,0,48,0,16,0,16,40,32,0,0,48,40,0,48,0,16,40,16,40,8,8,72,48,48,0,40,0,16,56,0,16,48,0,1e+08,16,0,32,48,0,24,16,0,0,0,9,14,11,10,10,10,12,11,8,21,10,14,14,12,16,9,13,13,13,9,7,11,10,9,4,9,12,19,17,10,13,7,15,6,19,12,13,9,6,9,10,9,7,14,12,10,11,10,10,8,11,6,6,24,11,10,10,13,15,16,10,10,5,4,7,7,5,18,12,13,11,11,9,7,12,9,7,13,9,12,14,11,16,10,14,18,9,10,7,8,14,9,9,7,8,13,9,15,8,9
24,0,16,24,16,24,24,0,0,0,0,32,0,16,16,0,32,40,0,0,0,0,16,0,0,0,24,16,32,40,0,0,0,0,40,24,0,24,0,16,16,24,0,24,0,48,24,0,0,0,24,56,24,0,40,0,0,40,8,24,0,32,0,24,56,0,0,24,0,0,0,0,0,0,16,0,0,16,0,40,0,40,16,48,0,0,40,0,0,16,1e+08,56,0,16,0,24,24,24,8,16,19,7,10,5,23,9,6,7,14,7,9,8,13,10,6,13,17,7,7,8,12,13,6,12,14,12,10,5,10,15,10,15,6,13,17,14,11,10,18,6,15,8,14,9,12,10,12,9,8,14,16,10,8,5,8,12,11,9,8,10,13,15,10,12,7,12,19,7,12,13,12,10,12,9,11,15,6,12,15,14,16,8,8,11,9,12,13,14,11,7,11,13,10,8,10,15,11,9,9,6
0,24,40,24,16,32,24,0,16,0,0,0,0,40,0,40,0,16,0,0,0,40,72,0,0,0,40,24,0,32,0,24,0,0,0,16,48,0,40,32,0,0,24,0,0,40,32,0,40,0,32,40,40,0,40,40,0,16,48,40,40,0,0,0,32,40,0,24,56,0,40,40,24,64,16,0,0,8,0,16,24,16,24,16,0,56,24,24,24,0,56,1e+08,0,16,0,16,56,16,8,16,20,8,8,5,15,9,10,9,16,8,7,9,11,7,7,10,13,9,7,9,9,11,6,13,15,10,6,6,7,10,4,10,6,16,14,11,10,5,12,9,12,5,12,8,13,16,16,5,6,16,16,5,6,6,11,14,10,5,9,8,15,19,7,7,6,10,20,6,8,10,14,11,7,7,6,16,13,15,12,14,14,5,13,9,6,6,11,8,9,3,13,8,11,8,6,15,8,11,11,8
0,16,0,0,32,0,0,48,24,32,32,24,0,0,0,0,0,0,16,0,32,32,0,16,40,0,0,0,0,0,56,0,48,0,0,32,0,16,0,0,16,56,48,48,16,0,0,48,0,48,0,0,72,64,0,32,0,32,0,0,0,24,32,48,0,0,48,32,0,0,0,8,48,0,32,16,16,32,32,0,16,32,0,16,32,0,24,32,0,32,0,0,1e+08,32,16,24,16,0,16,0,8,14,17,13,10,9,15,12,10,24,12,15,13,13,10,10,6,14,10,8,5,13,7,6,4,12,5,17,14,6,9,6,11,9,19,15,9,9,5,9,11,13,5,6,16,9,11,13,10,8,13,8,5,17,10,8,6,6,15,16,7,13,11,10,4,6,11,18,10,7,9,18,7,9,4,10,6,6,9,8,11,14,15,9,12,13,16,8,4,9,11,9,13,7,8,16,8,20,10,9
0,0,40,0,16,16,48,0,0,32,0,24,0,0,0,64,0,16,0,0,56,0,0,0,0,0,8,0,0,0,0,24,40,0,0,16,48,40,48,0,0,0,40,40,0,16,32,56,56,0,32,0,16,40,8,40,0,56,32,8,56,0,0,32,0,56,0,40,40,48,56,40,40,48,48,0,0,64,56,56,0,48,0,16,0,48,0,0,24,48,16,16,32,1e+08,0,16,40,16,8,16,12,13,13,11,7,6,12,13,17,16,10,10,4,12,4,9,11,11,7,8,6,13,11,14,13,8,6,13,6,10,6,10,7,12,15,13,9,4,4,9,12,3,7,6,13,10,12,9,9,14,11,8,10,13,13,15,8,8,16,10,15,15,6,4,4,3,13,11,7,14,14,8,8,7,4,16,9,14,13,12,19,9,13,8,15,9,12,11,9,5,8,5,14,5,2,16,13,13,9,8
56,48,24,32,56,0,0,24,0,0,64,24,48,0,8,24,0,24,40,16,24,0,0,56,40,0,0,0,0,0,0,8,0,32,32,40,8,24,0,0,0,0,0,32,32,32,0,24,24,72,0,0,32,0,0,0,40,0,0,0,0,0,40,0,0,0,24,0,0,24,24,0,0,0,0,64,64,0,24,0,32,0,48,16,40,0,24,40,24,0,0,0,16,0,1e+08,24,0,24,72,0,7,13,15,14,7,12,13,14,11,21,9,16,12,10,12,16,14,19,18,13,5,7,11,9,9,12,15,15,11,10,14,9,18,11,15,11,18,15,7,16,11,13,15,9,11,12,11,14,14,6,15,6,8,14,13,10,13,15,16,16,8,12,8,12,12,15,11,22,11,9,11,14,13,18,15,9,15,9,8,7,9,13,19,12,16,12,16,15,11,14,11,3,16,15,17,11,12,14,13,12
24,0,0,0,32,24,0,48,0,24,24,0,24,0,0,0,0,24,16,0,48,0,0,32,24,24,0,24,24,48,24,0,40,0,24,24,0,24,0,24,0,48,24,0,0,40,24,24,0,24,24,24,24,24,32,0,40,64,32,32,24,24,48,48,64,24,24,24,40,24,0,24,24,0,64,24,0,8,24,40,0,80,0,64,48,0,48,24,24,24,24,16,24,16,24,1e+08,0,24,0,16,13,19,11,8,10,8,13,8,15,22,10,13,9,10,4,9,16,9,9,6,8,8,7,13,11,17,8,19,6,13,6,14,14,11,20,16,4,7,7,10,8,7,6,7,16,10,12,12,11,10,14,15,8,14,9,10,15,13,11,10,9,13,13,11,5,10,10,18,11,15,10,11,7,11,6,12,7,7,21,11,10,13,18,17,11,9,17,9,6,7,11,9,16,8,6,16,11,18,12,10
0,24,48,56,0,0,72,0,16,0,0,0,0,40,0,40,8,0,0,16,0,16,32,16,24,16,40,0,0,32,0,24,0,0,24,0,40,40,40,32,24,16,0,0,0,24,32,0,48,0,32,72,0,16,40,40,0,24,24,40,40,0,0,0,48,40,0,24,40,40,48,48,0,56,0,8,0,40,0,64,0,24,24,24,0,40,24,0,24,16,24,56,16,40,0,0,1e+08,0,0,0,7,4,9,6,15,10,12,8,9,11,5,11,11,12,12,9,7,7,4,9,4,8,5,11,4,6,4,9,14,5,4,5,4,8,18,11,11,6,10,11,8,7,10,11,7,11,11,6,8,13,12,5,4,6,12,9,6,5,13,12,13,5,8,12,5,11,11,7,6,5,10,9,9,11,5,14,9,18,7,11,6,7,13,6,12,12,7,12,9,8,14,3,17,5,7,9,11,10,9,9
48,24,40,24,24,72,0,48,0,0,24,24,0,0,0,24,0,24,24,16,24,0,0,48,0,24,8,24,8,24,0,0,0,48,0,24,0,0,0,24,0,0,0,24,24,40,0,8,24,24,24,0,24,0,32,0,48,16,32,8,0,0,24,16,0,0,0,0,0,40,24,24,0,0,0,0,48,8,24,0,40,16,24,24,0,0,0,0,48,0,24,16,0,16,24,24,0,1e+08,32,0,9,11,15,18,7,14,16,12,9,19,9,17,14,11,7,11,11,15,12,12,8,12,13,8,7,9,18,20,9,8,10,10,16,7,8,14,11,19,4,12,8,16,12,10,10,10,9,24,12,9,10,6,14,11,9,9,9,14,8,17,5,13,21,13,10,11,12,17,4,13,7,13,5,6,12,11,8,6,14,7,11,16,12,9,19,14,14,13,15,12,12,4,15,11,13,11,9,8,11,10
56,24,32,32,0,40,0,32,0,0,0,24,56,0,0,0,0,24,24,16,0,0,0,56,0,0,8,0,0,0,0,0,0,48,16,8,0,24,0,0,0,0,0,24,64,32,0,24,0,72,0,0,40,0,8,0,40,8,8,8,0,8,16,8,0,0,24,0,0,24,24,0,0,0,0,72,72,8,0,0,32,0,40,24,0,0,24,48,24,0,8,8,16,8,72,0,0,32,1e+08,0,11,14,18,14,8,11,8,17,10,24,14,14,11,10,10,18,15,18,23,11,7,11,15,12,9,9,17,19,10,10,20,11,16,11,13,12,14,17,9,15,11,9,12,12,10,9,12,18,13,9,16,7,14,15,14,9,9,17,14,16,7,11,9,11,12,8,16,19,11,11,11,15,13,14,12,9,16,9,12,8,15,14,18,14,13,13,16,16,15,11,10,2,16,13,17,12,11,15,13,8
0,32,0,0,16,0,0,0,0,0,24,0,0,0,0,0,32,32,32,0,0,16,0,0,0,0,0,0,8,0,0,32,16,8,0,16,0,0,0,0,0,0,0,0,16,16,0,0,0,0,0,0,0,0,24,0,24,16,8,24,0,0,24,0,16,0,0,0,0,8,0,24,0,0,32,24,0,8,0,16,0,16,0,48,16,0,16,0,0,0,16,16,0,16,0,16,0,0,0,1e+08,23,11,5,15,5,15,12,14,19,5,8,9,10,6,7,10,18,17,13,11,5,12,12,16,13,17,14,11,17,12,13,17,15,14,6,9,12,21,6,7,9,15,11,18,15,11,13,12,14,11,12,15,17,11,9,12,19,14,14,6,6,20,10,8,17,18,15,17,9,11,16,11,10,6,21,6,10,6,14,15,17,18,13,14,11,14,16,7,18,16,12,4,5,5,14,19,5,6,14,7
5,16,12,4,9,8,3,8,9,6,13,5,9,10,8,3,4,16,11,6,5,9,11,6,7,8,9,10,6,10,7,8,10,9,9,12,6,4,9,9,9,7,6,4,10,11,12,4,6,8,11,10,12,8,11,6,17,14,9,14,8,9,10,10,15,9,9,11,12,7,4,10,7,6,19,11,7,10,6,11,6,13,10,19,10,9,12,6,3,9,19,20,8,12,7,13,7,9,11,23,1e+08,35,26,33,27,42,26,35,44,26,41,29,29,23,24,32,40,32,35,43,32,43,34,37,29,36,31,29,36,38,39,45,28,41,26,27,37,34,30,30,44,28,42,38,38,42,41,28,39,40,42,29,29,30,30,45,48,26,32,25,26,47,29,33,33,34,40,34,35,40,41,37,42,37,40,32,41,36,43,35,49,24,35,40,25,34,41,26,28,40,33,30,26,33,29,46,36,30,42,38
13,6,14,7,14,6,10,13,9,12,20,15,10,7,5,11,3,14,13,7,14,7,5,12,12,9,6,6,6,10,15,11,13,11,8,14,9,13,11,5,6,16,12,15,8,12,11,13,6,12,17,5,12,12,8,10,13,11,6,6,7,8,16,14,11,6,16,12,14,14,9,10,11,5,17,10,12,11,13,10,11,14,10,13,15,5,15,8,15,14,7,8,14,13,13,19,4,11,14,11,35,1e+08,28,33,24,43,30,37,33,31,38,37,27,29,20,35,36,31,36,35,27,36,38,35,25,37,30,32,28,35,36,34,31,35,30,36,29,31,25,32,37,29,34,32,33,42,35,30,38,30,31,33,36,35,31,37,40,24,31,35,31,36,30,26,28,30,33,35,32,40,36,35,32,28,35,30,34,31,40,37,34,34,33,34,28,36,35,31,31,38,32,32,33,35,29,33,34,30,39,39
15,14,17,11,15,13,10,19,9,14,13,17,14,10,7,10,6,9,14,5,14,12,10,14,13,5,9,6,11,7,19,13,12,15,7,13,13,16,12,6,5,15,12,17,13,12,10,13,10,14,11,7,14,14,10,15,14,10,12,9,13,7,17,12,7,8,15,9,10,12,10,12,12,10,14,18,17,13,14,12,12,11,8,12,9,10,10,13,13,11,10,8,17,13,15,11,9,15,18,5,26,28,1e+08,31,35,29,45,28,29,44,25,35,25,43,33,40,28,33,26,27,16,27,31,26,23,28,40,40,29,23,29,28,38,27,34,37,31,31,17,36,24,36,28,27,30,31,27,44,30,25,31,15,36,40,32,31,30,40,34,36,23,26,25,36,36,36,30,28,24,25,29,24,21,29,26,37,27,43,27,28,28,39,32,28,36,29,41,44,27,26,29,19,40,27,37,30,30,42,29,37
10,7,12,12,9,14,9,9,10,10,7,12,10,3,6,10,2,14,7,4,10,15,4,10,6,14,6,7,10,6,12,10,12,17,6,8,15,10,11,7,4,9,11,11,16,16,9,9,8,8,11,6,8,10,7,10,13,10,7,6,8,9,9,10,4,6,9,9,12,10,10,10,12,8,11,11,15,10,10,10,16,13,9,10,8,9,9,5,11,10,5,5,13,11,14,8,6,18,14,15,33,33,31,1e+08,32,37,38,44,41,35,33,38,18,31,28,36,29,39,42,33,34,37,41,34,22,33,35,39,30,35,44,33,34,35,32,32,39,48,33,37,34,30,51,40,31,37,31,33,43,29,36,29,39,36,36,35,31,32,40,35,32,30,28,36,33,23,27,38,21,41,29,31,40,38,38,38,43,33,33,35,43,42,40,33,36,34,39,32,47,36,49,33,38,29,33,33,40,34,36,34
8,15,10,11,9,5,12,8,4,10,11,13,7,14,16,9,4,4,12,16,11,7,17,10,8,8,10,18,6,13,8,11,9,5,17,9,10,10,8,12,17,12,15,11,8,12,11,10,9,10,10,14,9,9,12,9,7,11,16,14,13,5,10,11,19,11,10,16,10,8,10,10,11,14,12,6,7,8,9,11,10,11,11,9,10,9,12,11,14,10,23,15,10,7,7,10,15,7,8,5,27,24,35,32,1e+08,29,44,29,35,34,25,32,18,34,31,33,29,30,32,31,21,27,22,23,24,25,32,29,25,24,30,28,33,28,34,39,22,35,28,34,27,25,37,27,28,34,25,35,29,31,34,21,25,34,30,28,26,34,32,34,24,27,20,44,34,31,28,22,29,31,33,28,37,34,28,36,34,42,27,27,33,28,33,31,37,28,31,35,33,21,30,31,35,24,26,34,31,40,26,34
12,8,5,12,5,8,5,6,7,6,17,7,13,15,5,6,5,12,7,8,5,12,8,12,9,9,4,7,9,15,5,8,12,16,6,6,5,6,4,8,6,12,5,6,12,19,17,4,5,8,15,11,5,10,7,4,22,6,8,7,6,8,9,6,14,14,11,14,12,11,5,13,3,7,13,13,13,6,12,7,12,11,8,13,9,6,13,4,6,10,9,9,9,6,12,8,10,14,11,15,42,43,29,37,29,1e+08,36,43,45,33,39,37,28,27,29,37,47,35,40,42,30,41,37,46,27,37,37,36,46,45,43,49,32,35,28,39,39,41,33,38,45,31,42,43,39,43,39,34,44,37,42,34,37,35,36,45,47,32,35,32,30,45,37,34,35,34,44,36,32,48,40,39,46,40,42,30,43,39,42,46,44,41,35,47,32,36,38,33,34,42,41,28,33,37,31,42,41,29,48,37
18,13,17,9,15,13,13,21,7,11,18,16,11,7,11,13,9,14,21,7,14,17,7,19,15,7,9,14,20,12,17,14,14,17,5,13,16,17,13,10,7,13,16,15,12,14,11,17,13,10,13,8,12,11,11,14,14,10,16,12,13,10,17,13,12,12,11,10,11,14,13,14,13,12,13,14,7,10,10,10,14,12,12,11,12,11,10,10,22,12,6,10,15,12,13,13,12,16,8,12,26,30,45,38,44,36,1e+08,29,36,31,24,32,25,39,32,36,29,42,34,29,21,26,29,28,21,27,42,33,27,25,31,33,33,28,31,42,30,36,20,39,25,43,34,31,29,32,30,51,33,27,28,19,37,47,30,31,31,38,41,39,19,25,26,33,38,36,32,37,25,30,33,28,32,34,29,33,29,40,33,29,33,42,34,33,35,28,39,41,31,27,35,23,36,24,35,32,30,40,31,36
7,18,11,7,10,13,10,5,9,10,14,12,12,10,10,11,0,10,12,5,9,9,10,4,7,5,9,12,9,7,9,16,11,18,16,10,12,12,12,10,11,10,10,10,17,11,12,11,10,10,11,8,8,12,9,14,12,10,9,10,11,7,15,10,8,13,12,12,10,12,12,14,13,14,12,16,17,11,11,11,10,8,15,9,7,15,7,10,11,11,7,9,12,13,14,8,8,12,17,14,35,37,28,44,29,43,29,1e+08,40,33,37,40,23,26,23,32,33,38,39,37,28,34,39,39,26,32,38,33,31,38,46,39,34,36,33,36,35,40,31,31,43,28,46,38,31,41,34,32,42,33,37,29,33,30,38,40,37,36,32,32,29,38,29,35,33,32,32,35,29,42,32,38,42,34,39,35,43,36,37,33,33,34,34,32,37,35,32,27,39,42,37,28,32,35,30,36,36,32,35,36
10,16,14,6,8,8,8,8,5,8,13,11,9,11,14,8,6,14,7,10,9,10,11,8,5,9,8,13,9,16,11,12,14,13,14,12,11,14,9,13,10,14,11,12,15,15,14,9,9,9,14,9,11,9,11,14,14,14,12,11,10,9,13,14,15,11,12,10,14,10,9,12,13,10,16,12,10,10,10,15,10,16,14,14,9,12,12,7,11,8,14,16,10,17,11,15,9,9,10,19,44,33,29,41,35,45,36,40,1e+08,29,45,35,26,25,24,30,43,39,41,42,32,51,36,44,30,37,36,29,41,41,42,40,28,41,35,38,38,42,37,32,42,26,43,40,40,41,41,33,42,44,44,36,31,37,35,48,43,30,38,33,28,45,31,35,31,31,42,33,30,51,47,44,45,41,43,36,46,33,43,37,49,32,33,37,35,36,36,27,30,41,39,32,26,33,28,48,40,33,52,33
20,10,16,16,26,17,10,25,6,17,24,16,20,8,5,13,1,8,18,5,22,11,5,22,21,2,10,6,12,9,20,10,14,19,7,24,13,13,10,5,4,21,20,15,15,17,11,17,10,19,15,6,22,18,10,11,16,19,12,9,7,8,26,15,5,8,18,21,11,15,10,12,13,8,21,18,19,14,13,10,16,18,12,21,21,6,20,18,17,21,7,8,24,16,21,22,11,19,24,5,26,31,44,35,34,33,31,33,29,1e+08,22,38,18,38,32,41,24,31,30,34,15,25,33,26,22,29,46,45,30,31,30,30,48,24,34,37,32,35,20,46,26,27,32,32,28,30,27,40,28,27,33,20,42,44,33,32,27,42,36,50,25,23,23,29,41,28,34,35,25,36,29,34,27,31,30,38,29,40,30,29,32,43,40,33,43,37,38,44,33,28,28,18,46,29,35,31,30,44,33,38
9,9,8,7,5,8,6,9,14,7,11,11,12,7,12,3,5,8,11,14,5,11,5,7,5,14,7,7,8,8,9,9,8,12,17,10,5,11,4,6,10,14,8,8,13,11,8,7,4,12,7,5,10,14,5,10,11,9,7,5,5,12,12,14,8,5,8,7,6,8,5,7,10,7,8,11,14,8,7,7,6,8,8,7,8,6,5,7,8,10,9,7,12,10,9,10,5,9,14,8,41,38,25,33,25,39,24,37,45,22,1e+08,34,23,17,21,28,35,31,35,41,36,45,37,37,25,35,33,28,37,37,37,40,26,37,32,31,36,36,32,29,39,28,38,39,34,34,37,28,43,39,41,34,28,29,33,42,39,21,31,27,30,41,32,33,25,29,36,33,35,43,37,36,41,45,39,34,39,28,36,38,43,28,30,34,24,28,30,24,33,37,36,30,26,33,24,45,39,24,38,31
13,9,7,15,13,14,9,14,8,14,15,13,17,10,6,8,2,11,14,7,16,13,7,13,13,9,6,7,16,9,15,8,13,19,12,15,7,9,7,5,6,16,13,13,13,16,10,15,7,14,10,9,15,17,9,9,16,16,8,8,10,9,19,15,8,11,15,15,10,8,8,10,13,8,14,18,14,9,13,10,14,16,13,17,15,7,17,14,13,14,8,9,15,10,16,13,11,17,14,9,29,37,35,38,32,37,32,40,35,38,34,1e+08,25,32,25,35,32,38,41,35,26,30,38,33,28,39,38,44,32,35,39,34,32,34,39,40,36,37,27,36,35,31,39,34,31,33,31,38,40,35,36,24,35,36,47,35,32,32,32,37,25,32,30,30,31,30,31,41,31,41,37,36,33,40,36,38,34,39,33,31,32,37,39,31,37,39,36,32,36,36,34,26,37,34,32,30,35,34,32,36
9,17,7,6,4,5,3,9,9,7,11,13,9,10,6,5,14,10,9,7,3,6,9,13,7,13,11,12,10,14,9,7,7,10,12,4,10,11,8,17,7,11,6,12,12,9,15,11,6,11,13,18,10,5,16,5,10,4,11,15,11,15,10,10,14,9,6,4,9,9,5,13,6,8,7,12,12,9,3,3,11,11,12,9,10,7,11,2,9,14,13,11,13,4,12,9,11,14,11,10,29,27,25,18,18,28,25,23,26,18,23,25,1e+08,28,20,28,29,25,26,26,24,26,26,30,23,27,27,22,24,30,25,29,21,22,24,24,28,20,23,22,29,31,24,27,27,27,28,30,25,26,23,22,17,21,23,25,28,28,27,20,18,33,29,20,27,25,29,24,26,24,26,25,26,22,30,21,25,31,25,28,25,16,26,28,22,28,21,25,22,28,20,19,22,25,26,27,23,20,29,27
12,13,12,7,8,7,9,10,7,12,8,16,6,4,5,8,5,10,12,4,9,9,2,14,8,10,7,10,14,5,14,12,12,6,11,9,19,20,10,10,4,13,10,20,12,12,10,13,8,11,8,9,6,12,8,11,5,11,15,7,14,9,11,13,8,9,11,9,10,12,8,10,9,10,12,9,9,12,11,12,9,14,13,7,9,9,7,7,19,12,10,7,13,12,10,10,12,11,10,6,23,29,43,31,34,27,39,26,25,38,17,32,28,1e+08,40,38,25,30,22,26,17,22,27,25,20,25,40,36,29,25,23,33,42,23,27,34,27,27,16,41,29,38,23,27,22,28,28,41,21,24,24,16,37,36,27,24,24,39,36,33,24,32,27,29,40,35,30,26,24,27,26,27,26,28,27,30,25,42,27,29,26,30,27,24,37,29,30,41,28,29,25,19,37,25,38,26,26,34,25,36
14,6,6,18,5,8,6,10,11,11,4,13,5,2,13,3,9,4,11,17,9,19,4,12,14,13,6,12,14,3,9,11,5,12,19,5,8,10,5,8,10,13,10,8,7,7,5,1,5,12,5,15,11,11,8,15,7,4,6,4,5,13,12,7,4,5,2,6,5,2,3,12,12,16,4,12,15,4,5,5,15,4,17,6,12,10,6,9,10,16,6,7,10,4,12,4,12,7,10,7,24,20,33,28,31,29,32,23,24,32,21,25,20,40,1e+08,29,21,25,23,23,14,21,27,24,22,18,35,27,27,27,26,28,30,19,26,32,30,25,15,31,25,28,22,25,23,25,21,31,28,19,22,14,30,39,24,23,26,37,28,29,18,23,22,31,30,38,23,30,20,25,26,20,24,25,22,23,23,36,21,27,24,34,22,22,36,29,29,36,26,25,22,16,33,25,35,22,24,38,21,27
17,14,13,12,10,8,9,15,4,7,11,17,16,9,7,9,7,12,13,6,10,10,6,18,10,4,10,12,7,10,12,13,11,12,11,9,13,17,10,10,8,12,11,12,11,14,11,11,12,13,12,9,12,7,9,11,11,8,15,9,12,5,14,13,14,11,12,9,9,10,11,9,9,13,9,15,13,10,11,10,14,10,17,12,8,9,11,11,14,9,13,10,10,9,16,9,9,11,18,10,32,35,40,36,33,37,36,32,30,41,28,35,28,38,29,1e+08,33,39,32,33,17,36,32,35,21,33,45,46,30,34,34,34,45,27,34,41,30,33,23,38,37,36,35,33,30,34,29,39,33,26,30,20,37,47,30,33,29,36,29,43,25,36,29,31,46,35,34,36,29,37,30,32,33,31,31,31,31,46,33,34,28,39,37,34,35,41,37,42,34,37,34,22,46,33,36,30,28,38,39,43
15,12,6,9,8,7,6,6,7,4,13,14,13,13,4,5,11,23,11,4,5,6,8,17,6,9,5,7,12,15,8,16,8,13,8,11,5,14,3,9,6,13,6,12,11,22,18,6,4,8,18,16,8,5,14,5,20,11,13,15,4,13,8,12,17,9,10,9,8,10,6,10,3,6,17,15,9,13,8,12,10,14,11,19,14,5,25,7,9,13,17,13,6,11,14,16,7,11,15,18,40,36,28,29,29,47,29,33,43,24,35,32,29,25,21,33,1e+08,32,32,33,27,39,33,49,23,37,38,31,39,44,43,42,26,35,28,31,34,31,28,33,42,30,41,38,39,42,38,29,33,44,40,38,30,31,31,45,41,30,36,27,27,44,33,32,36,33,40,29,31,43,36,34,37,39,48,32,38,31,47,46,42,26,32,46,29,34,42,27,33,42,31,26,30,34,32,38,38,23,44,32
11,16,14,6,12,12,10,14,2,13,15,16,16,5,4,11,3,19,11,3,12,17,4,15,11,4,6,4,12,9,14,15,15,16,11,10,12,16,10,5,3,11,13,16,15,14,10,13,12,19,12,5,13,13,11,13,12,11,9,7,11,3,17,15,4,10,13,11,12,13,13,13,17,12,13,16,20,13,14,11,8,12,20,13,11,11,13,11,13,13,7,9,14,11,19,9,7,15,18,17,32,31,33,39,30,35,42,38,39,31,31,38,25,30,25,39,32,1e+08,48,30,21,32,38,34,20,32,40,41,33,35,39,36,36,33,35,29,34,45,26,45,35,30,45,38,31,36,29,34,40,32,28,23,43,40,37,39,29,33,53,37,21,35,26,32,43,31,34,42,28,34,34,34,39,37,40,33,41,39,31,34,40,48,38,35,36,38,39,31,44,35,37,24,38,25,38,39,33,38,35,34
14,14,7,11,12,11,8,10,5,8,17,10,17,8,11,7,1,17,13,10,11,19,11,12,13,9,6,10,8,4,10,12,6,15,19,10,5,7,6,9,12,10,13,8,19,9,7,8,5,15,6,9,14,10,8,10,12,8,9,8,5,7,17,5,5,5,9,8,4,7,7,9,10,9,8,16,19,8,8,5,15,7,19,9,11,9,11,14,7,13,7,7,10,7,18,9,4,12,23,13,35,36,26,42,32,40,34,39,41,30,35,41,26,22,23,32,32,48,1e+08,39,32,42,46,28,21,30,29,36,28,35,41,34,32,34,33,32,35,54,37,31,37,31,52,38,27,35,27,26,48,29,31,29,34,30,38,36,34,27,39,29,26,29,20,34,34,29,35,38,27,37,30,33,47,35,39,38,45,35,38,31,41,47,36,39,28,37,34,25,50,41,42,35,26,26,33,41,36,27,40,30
9,11,8,10,6,6,9,5,6,10,11,13,11,10,7,7,9,11,10,12,7,12,10,15,7,15,7,13,4,7,8,11,9,14,11,7,6,7,5,13,13,11,12,6,11,9,9,4,8,12,11,10,9,8,7,13,13,7,8,9,7,6,10,8,8,10,7,8,8,10,7,8,14,11,9,12,10,7,8,6,13,9,13,10,10,8,10,7,8,9,8,9,8,8,13,6,9,12,11,11,43,35,27,33,31,42,29,37,42,34,41,35,26,26,23,33,33,30,39,1e+08,26,40,32,33,28,37,30,28,38,39,36,37,31,37,26,33,32,38,32,31,40,32,38,39,39,37,35,25,43,43,39,29,34,33,35,41,39,26,34,36,29,34,34,31,32,33,35,33,34,42,40,40,39,37,38,33,40,32,37,44,41,35,29,33,26,32,33,26,33,36,33,27,28,35,29,41,38,32,43,37
5,7,3,4,5,7,3,4,17,5,7,6,5,9,15,4,2,5,4,17,5,4,12,7,2,23,5,12,7,9,5,4,10,6,19,5,7,6,4,10,8,5,5,5,6,7,7,5,5,4,7,10,4,5,9,5,9,6,5,7,6,11,5,7,12,8,2,4,9,7,4,6,6,4,9,5,6,4,7,7,5,10,9,8,6,4,7,2,4,7,12,9,5,6,5,8,4,8,7,5,32,27,16,34,21,30,21,28,32,15,36,26,24,17,14,17,27,21,32,26,1e+08,35,31,33,22,29,18,23,23,29,31,29,17,28,28,25,30,29,48,20,28,17,35,33,29,30,28,16,35,29,24,39,17,19,25,31,30,18,18,22,41,24,24,29,19,17,28,24,22,33,30,28,32,29,32,27,34,24,31,27,30,20,22,32,18,22,23,17,22,27,30,45,17,26,19,28,31,21,32,27
9,10,13,6,6,11,5,13,14,7,7,12,7,7,9,6,5,13,4,11,4,11,6,9,5,12,8,7,8,10,8,8,10,6,14,10,8,9,8,9,8,11,5,8,8,8,13,6,6,7,13,11,15,10,13,8,8,12,8,10,8,11,8,19,9,9,8,7,9,9,7,9,6,8,10,10,12,13,8,10,7,12,15,12,9,7,9,3,7,11,13,11,13,13,7,8,8,12,11,12,43,36,27,37,27,41,26,34,51,25,45,30,26,22,21,36,39,32,42,40,35,1e+08,37,37,24,34,31,32,38,41,41,40,28,39,29,33,34,34,33,33,47,29,40,40,39,40,43,31,40,41,39,29,35,32,31,39,38,25,31,26,30,48,36,37,30,26,49,30,28,48,43,42,47,39,37,33,40,36,37,41,48,33,36,41,30,37,36,23,30,33,35,29,30,34,26,45,39,25,45,31
9,10,8,12,7,11,7,8,9,10,13,11,9,4,8,6,4,11,10,6,6,12,6,10,10,11,4,6,9,3,10,14,11,13,14,12,12,6,9,6,6,8,9,10,14,10,7,7,5,9,8,7,11,8,9,11,13,7,10,10,6,10,10,8,2,6,6,7,6,7,6,10,12,11,10,13,13,11,8,6,14,8,12,11,10,9,8,10,6,10,6,6,7,11,11,7,5,13,15,12,34,38,31,41,22,37,29,39,36,33,37,38,26,27,27,32,33,38,46,32,31,37,1e+08,38,24,37,36,34,34,38,43,36,31,29,35,33,44,39,31,33,38,31,40,39,37,38,31,39,41,28,34,27,38,37,33,38,32,35,38,33,26,35,29,28,37,33,36,45,29,37,34,35,37,38,38,35,44,34,33,40,37,46,36,33,34,41,37,32,38,42,39,26,30,29,33,34,36,33,38,36
7,15,9,4,7,8,9,4,10,9,11,14,10,13,5,9,6,16,6,4,4,10,5,9,4,7,8,6,9,15,8,13,15,10,10,9,11,14,8,8,6,10,7,12,12,14,14,8,8,10,14,12,7,12,11,9,12,11,11,11,10,8,9,13,15,14,11,10,13,9,8,11,8,12,13,11,12,8,13,14,6,13,16,11,9,10,10,4,10,9,12,13,6,14,9,13,11,8,12,16,37,35,26,34,23,46,28,39,44,26,37,33,30,25,24,35,49,34,28,33,33,37,38,1e+08,27,38,32,33,38,43,38,43,27,38,30,27,35,33,31,32,48,27,38,38,40,40,39,26,45,35,40,34,31,27,35,41,45,27,31,27,27,40,34,34,33,29,42,37,33,42,39,38,38,32,34,33,41,32,42,37,42,30,32,41,30,37,31,26,32,40,38,25,30,35,30,37,38,26,40,36
8,11,7,8,12,8,5,9,8,7,7,8,9,11,11,3,2,11,8,4,8,5,9,8,7,8,9,11,6,9,6,7,10,11,11,10,10,8,3,11,8,6,6,7,7,13,5,3,4,10,5,9,8,6,9,7,11,12,9,10,6,6,9,7,13,5,5,7,11,9,4,3,5,4,11,9,9,10,5,14,9,13,12,13,7,7,12,9,6,4,14,15,4,13,9,11,4,7,9,13,29,25,23,22,24,27,21,26,30,22,25,28,23,20,22,21,23,20,21,28,22,24,24,27,1e+08,28,19,18,24,24,21,29,26,29,24,24,25,27,24,23,27,20,24,27,25,24,30,19,29,27,31,25,21,26,29,26,27,20,17,25,22,24,24,23,21,21,24,25,27,29,34,26,24,25,20,24,24,22,27,26,25,18,24,23,23,23,21,18,22,24,23,23,21,25,23,30,24,26,27,23
11,10,5,8,8,7,6,8,13,6,14,6,10,9,10,4,5,16,9,8,8,15,7,15,8,12,6,10,10,9,11,6,8,7,9,10,9,8,7,7,9,16,11,10,10,17,9,10,2,8,9,6,10,8,5,8,10,9,10,6,4,6,9,7,13,6,11,13,8,8,5,5,8,6,14,10,6,4,5,8,7,12,8,12,9,6,15,8,8,9,12,10,12,8,12,17,6,9,9,17,36,37,28,33,25,37,27,32,37,29,35,39,27,25,18,33,37,32,30,37,29,34,37,38,28,1e+08,28,29,29,36,35,41,32,33,33,34,37,32,27,32,36,30,37,32,39,41,39,31,37,34,35,29,33,32,37,37,39,25,29,32,29,33,35,28,28,26,34,29,31,41,35,40,38,29,38,35,32,29,41,37,36,29,33,40,30,32,33,29,32,42,38,26,29,33,28,32,37,28,37,37
14,11,8,9,13,15,3,12,3,5,14,11,9,9,8,6,7,22,17,5,9,17,11,11,8,4,8,11,15,8,6,12,3,20,9,10,10,9,3,7,6,6,5,11,21,12,11,5,7,8,11,9,10,2,12,5,16,3,11,14,5,9,15,7,8,9,4,5,6,9,7,14,3,6,11,11,12,8,6,3,13,5,13,13,12,6,12,10,10,12,10,6,5,6,15,8,4,18,17,14,31,30,40,35,32,37,42,38,36,46,33,38,27,40,35,45,38,40,29,30,18,31,36,32,19,28,1e+08,44,33,31,38,33,43,28,31,36,37,36,20,38,32,33,38,34,31,30,31,45,31,31,30,19,43,42,32,32,31,44,40,38,21,34,28,30,51,38,28,31,31,39,30,32,28,35,42,30,31,43,28,36,34,44,38,31,40,40,33,49,38,33,28,19,40,28,40,34,30,38,33,38
17,6,10,19,17,23,11,16,3,16,16,13,14,6,3,10,4,11,16,2,15,18,5,16,16,4,5,4,11,5,20,12,13,20,7,20,12,13,11,5,1,17,15,16,21,24,11,15,7,15,12,6,15,17,6,13,22,15,9,6,10,5,17,14,5,8,18,17,11,10,9,10,14,12,17,14,23,14,13,13,23,16,10,16,19,9,17,16,11,19,5,6,17,13,15,19,9,20,19,11,29,32,40,39,29,36,33,33,29,45,28,44,22,36,27,46,31,41,36,28,23,32,34,33,18,29,44,1e+08,28,30,37,29,44,32,35,37,31,40,23,37,33,31,42,33,33,30,31,41,33,25,29,17,36,41,37,34,29,34,33,44,23,28,26,29,38,29,27,45,26,33,32,32,31,30,30,34,36,42,35,30,33,42,40,35,41,44,41,37,43,30,36,18,37,24,36,34,33,39,32,41
9,9,10,14,5,10,4,8,15,8,14,10,11,11,7,4,10,15,9,15,4,17,10,13,8,15,8,6,12,10,8,7,10,12,12,9,5,5,4,7,17,17,12,5,13,12,13,4,4,10,13,12,9,15,8,19,14,10,4,7,5,10,8,9,7,11,12,12,10,5,5,12,13,15,11,10,13,7,10,9,6,8,13,10,12,12,10,6,5,17,10,7,14,6,11,6,14,9,10,17,36,28,29,30,25,46,27,31,41,30,37,32,24,29,27,30,39,33,28,38,23,38,34,38,24,29,33,28,1e+08,34,36,41,32,35,21,32,32,35,23,31,32,34,31,35,36,33,34,32,35,42,40,32,37,31,29,36,34,33,31,31,21,41,34,33,38,33,40,33,28,39,42,33,34,53,36,23,30,30,33,38,41,34,30,33,34,27,49,28,31,34,29,19,32,32,35,41,38,27,38,33
10,7,6,7,6,5,5,6,9,5,14,9,9,12,6,5,8,14,8,5,4,5,8,10,8,10,7,7,7,11,5,11,9,5,9,11,9,9,6,8,8,11,7,10,5,15,15,5,5,6,14,8,7,7,10,8,14,11,9,11,7,14,8,7,11,9,6,11,11,8,5,8,4,6,14,10,7,11,7,12,10,14,13,13,11,6,17,6,8,10,15,10,6,10,10,13,5,8,10,12,38,35,23,35,24,45,25,38,41,31,37,35,30,25,27,34,44,35,35,39,29,41,38,43,24,36,31,30,34,1e+08,43,40,32,31,29,34,38,32,30,34,44,29,41,40,40,42,38,25,37,40,43,33,36,32,33,48,42,32,33,31,27,40,42,28,33,28,37,35,32,44,41,37,39,39,39,36,39,36,41,41,39,35,30,42,28,31,35,30,35,36,32,24,33,42,31,36,43,29,44,39
10,9,6,9,7,9,6,7,9,9,15,11,10,4,9,5,8,14,13,10,7,8,4,11,8,9,2,7,7,5,8,14,6,15,16,6,5,10,6,3,7,7,4,9,14,12,13,7,5,13,13,12,8,6,13,5,20,6,2,11,4,14,10,7,7,5,9,7,6,7,5,13,5,5,12,12,18,11,7,7,9,6,13,17,14,6,18,7,6,13,10,4,9,6,14,6,4,10,20,13,39,36,29,44,30,43,31,46,42,30,37,39,25,23,26,34,43,39,41,36,31,41,43,38,21,35,38,37,36,43,1e+08,35,34,28,31,33,44,46,33,37,38,30,47,47,38,44,35,37,40,32,34,30,34,32,34,37,35,35,37,30,26,40,34,34,34,33,35,40,31,40,32,35,41,38,51,34,44,36,36,40,41,38,36,38,33,39,41,28,42,43,38,29,31,30,35,37,36,33,40,32
10,9,9,10,6,6,4,5,6,9,16,7,11,13,10,4,8,17,11,7,5,12,8,9,6,7,5,9,11,12,8,7,12,12,14,9,8,9,6,10,7,11,8,5,12,18,11,5,4,10,11,8,11,5,6,6,16,10,9,9,6,6,12,8,16,11,12,14,12,10,4,5,7,8,12,12,11,8,11,11,15,13,7,10,8,7,13,7,6,7,15,10,6,10,9,14,5,10,11,17,45,34,28,33,28,49,33,39,40,30,40,34,29,33,28,34,42,36,34,37,29,40,36,43,29,41,33,29,41,40,35,1e+08,31,39,30,32,41,37,26,39,47,31,38,38,47,36,35,34,41,43,40,32,39,33,35,44,45,31,33,28,24,45,38,28,36,29,46,35,30,49,36,39,45,38,42,29,39,30,48,42,45,33,31,41,30,33,42,30,32,41,36,28,30,33,33,42,41,28,47,33
15,9,6,14,14,17,5,15,6,9,17,8,19,5,4,4,6,13,15,2,10,14,5,19,14,7,8,6,11,5,14,7,5,18,5,16,9,10,4,6,2,14,10,10,22,16,6,10,6,16,7,6,16,9,6,5,15,9,6,6,7,5,15,10,6,6,14,11,4,5,4,6,9,6,11,20,17,7,6,5,16,10,7,18,15,4,17,17,6,15,6,6,11,7,18,14,4,16,16,15,28,31,38,34,33,32,33,34,28,48,26,32,21,42,30,45,26,36,32,31,17,28,31,27,26,32,43,44,32,32,34,31,1e+08,26,33,36,31,35,19,43,30,35,27,29,30,31,25,41,36,26,32,18,40,46,31,32,27,37,38,47,25,28,28,29,46,34,27,40,26,32,33,34,32,29,34,32,27,39,32,29,34,43,36,32,43,37,37,41,41,33,34,19,43,29,35,31,34,44,31,38
6,12,11,8,7,8,6,7,11,6,16,5,11,17,7,4,1,15,10,2,7,9,11,7,7,5,9,10,9,18,7,8,12,8,10,12,7,5,5,9,10,8,6,7,9,12,15,5,8,8,15,10,11,9,12,5,16,11,9,12,8,7,11,10,16,18,13,13,12,9,6,10,6,7,15,11,7,9,12,10,7,9,12,15,10,9,17,10,7,6,13,16,9,12,11,11,8,7,11,14,41,35,27,35,28,35,28,36,41,24,37,34,22,23,19,27,35,33,34,37,28,39,29,38,29,33,28,32,35,31,28,39,26,1e+08,26,28,28,30,28,29,37,29,35,31,34,32,39,23,38,39,39,38,27,27,38,38,41,22,28,27,33,31,28,32,24,26,39,26,28,40,39,35,36,38,30,32,41,31,35,31,40,25,33,33,27,32,31,23,33,31,39,29,26,31,24,36,36,24,39,30
11,17,12,10,20,9,12,17,5,18,18,17,14,13,12,10,5,6,17,12,19,6,10,17,14,7,14,11,8,15,19,12,14,9,13,19,12,14,10,13,12,18,18,16,9,9,10,19,11,16,12,16,14,18,16,10,10,20,17,16,10,5,19,17,15,14,18,20,10,12,10,11,15,9,21,16,8,16,15,13,5,20,16,18,18,8,16,14,12,19,17,14,19,15,15,20,18,8,13,6,26,30,34,32,34,28,31,33,35,34,32,39,24,27,26,34,28,35,33,26,28,29,35,30,24,33,31,35,21,29,31,30,33,26,1e+08,38,29,33,29,31,27,28,35,30,34,33,31,33,31,25,30,24,29,36,36,34,29,35,30,36,34,28,26,30,27,30,29,40,27,32,33,35,30,31,26,42,31,36,31,29,29,31,39,33,34,35,31,35,29,34,35,29,38,30,25,35,27,41,30,32
8,11,18,7,17,11,12,15,8,13,12,13,8,14,7,13,6,11,11,8,15,7,10,11,8,7,11,10,7,12,13,11,15,8,10,14,15,10,12,11,8,11,14,12,8,10,17,15,11,10,18,9,13,10,15,13,11,14,15,16,12,10,14,12,11,15,14,14,15,14,14,14,13,12,17,10,8,14,13,13,13,15,12,16,13,10,12,10,14,12,14,11,15,13,11,16,11,14,12,9,27,36,37,32,39,39,42,36,38,37,31,40,24,34,32,41,31,29,32,33,25,33,33,27,24,34,36,37,32,34,33,32,36,28,38,1e+08,31,34,25,36,34,33,36,36,36,34,32,37,31,33,28,26,33,38,33,33,28,36,31,37,26,34,33,34,32,33,33,36,28,35,33,33,31,35,33,38,36,38,34,36,29,34,32,32,36,31,35,35,32,32,32,31,40,34,27,38,30,46,32,39
12,16,8,13,5,10,13,5,7,10,15,12,12,9,8,8,8,9,14,10,8,13,5,9,5,10,8,6,11,8,7,14,7,15,20,9,9,9,8,6,7,10,10,10,16,13,11,6,9,14,11,10,8,10,10,10,14,9,9,10,7,8,19,7,10,7,5,11,9,7,7,13,10,12,12,17,17,8,8,10,12,10,14,11,12,8,9,6,10,13,11,10,9,9,18,4,11,11,14,12,37,29,31,39,22,39,30,35,38,32,36,36,28,27,30,30,34,34,35,32,30,34,44,35,25,37,37,31,32,38,44,41,31,28,29,31,1e+08,35,26,33,34,32,38,38,36,35,36,32,38,31,34,27,33,31,35,39,38,37,33,31,24,32,34,29,37,36,38,39,30,40,36,38,35,36,40,32,34,34,33,37,32,36,36,34,30,39,32,37,39,42,32,26,30,31,37,37,36,34,35,33
17,9,5,13,10,18,4,12,3,5,12,9,13,4,16,7,2,24,12,16,8,18,7,13,13,4,4,10,11,5,6,5,5,21,16,10,4,9,5,6,12,7,6,7,21,17,6,8,6,11,5,6,8,6,6,4,12,9,4,6,4,6,10,5,5,7,8,6,4,7,6,6,4,3,7,12,16,6,6,5,12,7,8,11,8,6,9,12,8,9,10,5,9,4,15,7,6,19,17,21,34,31,31,48,35,41,36,40,42,35,36,37,20,27,25,33,31,45,54,38,29,34,39,33,27,32,36,40,35,32,46,37,35,30,33,34,35,1e+08,33,37,39,32,51,39,31,32,28,35,45,29,31,23,37,32,38,39,31,32,41,37,25,33,27,32,39,33,31,41,24,37,32,38,47,40,37,36,45,34,38,30,39,45,41,37,32,39,44,33,50,42,41,32,32,27,33,39,35,32,40,34
7,13,6,6,5,4,5,4,11,2,9,4,7,15,27,7,3,5,5,28,5,3,17,6,4,21,11,20,4,13,6,7,4,7,28,4,9,8,7,13,24,7,5,3,6,7,9,4,7,6,7,15,4,4,12,4,7,4,11,13,7,9,8,4,18,11,6,7,9,6,7,9,2,8,7,7,5,5,5,6,5,4,13,6,7,8,8,4,6,6,18,12,5,4,7,7,10,4,9,6,30,25,17,33,28,33,20,31,37,20,32,27,23,16,15,23,28,26,37,32,48,33,31,31,24,27,20,23,23,30,33,26,19,28,29,25,26,33,1e+08,18,34,18,44,35,27,32,26,15,34,24,26,33,18,18,25,36,31,16,24,21,33,28,20,28,19,16,25,25,23,35,29,30,41,31,31,31,38,23,35,31,29,18,24,32,18,25,24,18,26,32,40,45,19,27,18,34,35,20,38,25
13,15,12,13,10,10,6,10,5,12,11,10,16,13,7,11,2,12,11,7,8,9,7,13,10,7,8,8,9,10,9,7,8,14,10,10,14,8,10,8,6,10,5,12,14,12,16,9,13,11,16,9,10,11,11,6,14,6,10,9,14,4,12,10,7,13,12,10,10,10,14,13,8,14,11,15,16,7,10,6,10,6,18,12,10,12,13,9,9,9,6,9,9,9,16,10,11,12,15,7,30,32,36,37,34,38,39,31,32,46,29,36,22,41,31,38,33,45,31,31,20,33,33,32,23,32,38,37,31,34,37,39,43,29,31,36,33,37,18,1e+08,36,32,36,30,33,29,33,39,33,29,34,21,49,44,33,33,31,41,40,44,29,41,26,33,41,35,30,35,29,39,32,29,34,36,31,37,34,40,37,37,36,37,46,31,46,34,41,40,39,29,33,21,49,33,38,33,37,40,30,40
7,12,12,4,5,7,8,7,8,11,8,15,8,9,6,8,4,12,6,6,7,8,6,6,2,1,7,7,8,14,5,10,16,8,14,6,12,13,8,6,10,10,6,14,9,14,17,8,9,9,18,10,7,11,9,8,11,13,8,9,10,8,10,16,16,13,13,13,15,10,10,11,8,9,13,7,12,11,16,15,4,13,17,10,7,8,10,2,10,10,15,12,11,12,11,8,8,8,11,9,44,37,24,34,27,45,25,43,42,26,39,35,29,29,25,37,42,35,37,40,28,47,38,48,27,36,32,33,32,44,38,47,30,37,27,34,34,39,34,36,1e+08,21,46,39,40,36,38,26,41,35,42,34,36,29,39,46,43,29,39,29,25,44,33,28,34,27,44,34,30,46,38,44,40,35,38,30,42,36,47,44,49,38,36,39,27,36,35,26,36,44,36,26,29,35,32,39,40,27,41,38
13,15,7,7,5,11,4,11,9,4,12,9,9,10,8,5,8,18,13,5,6,11,8,11,10,16,4,18,17,9,12,8,8,14,9,8,12,12,9,10,8,12,7,13,17,14,7,13,7,7,8,9,6,10,10,7,14,3,12,9,10,7,11,8,10,7,4,2,4,9,5,9,5,6,7,11,13,6,4,3,14,10,7,7,7,9,8,3,13,9,8,5,13,3,13,7,7,16,9,15,28,29,36,30,25,31,43,28,26,27,28,31,31,38,28,36,30,30,31,32,17,29,31,27,20,30,33,31,34,29,30,31,35,29,28,33,32,32,18,32,21,1e+08,29,28,32,28,28,42,28,25,29,20,35,37,29,28,30,32,32,29,20,30,32,31,38,36,30,32,26,28,28,28,25,28,25,27,27,32,30,32,31,29,31,30,34,33,37,34,32,26,26,21,34,26,35,27,29,36,31,33
9,13,10,8,7,11,8,6,8,8,8,10,10,11,13,7,3,16,9,13,4,13,11,9,8,10,10,10,9,13,4,12,6,14,14,8,9,10,8,10,10,3,6,14,14,12,10,6,7,10,10,13,8,8,15,7,10,5,12,13,7,12,9,9,11,9,5,6,6,8,8,9,8,8,5,13,12,8,6,9,8,6,20,9,6,8,11,7,8,7,14,12,5,7,15,6,10,12,12,11,42,34,28,51,37,42,34,46,43,32,38,39,24,23,22,35,41,45,52,38,35,40,40,38,24,37,38,42,31,41,47,38,27,35,35,36,38,51,44,36,46,29,1e+08,45,40,43,33,33,48,34,36,36,35,36,43,46,38,28,37,34,34,34,31,39,35,26,37,40,26,39,38,37,52,42,44,42,52,36,39,38,42,44,37,38,31,36,35,29,45,40,49,34,31,30,33,40,41,30,44,37
7,11,5,7,4,8,5,5,13,5,12,4,8,10,4,3,4,13,11,6,1,12,8,7,4,13,10,9,10,10,5,11,7,10,10,6,6,6,4,9,6,5,5,3,11,12,14,3,4,8,12,16,6,7,14,5,16,5,9,17,6,15,6,5,9,11,5,6,6,6,5,15,4,7,15,10,15,8,4,6,9,7,14,15,11,6,13,5,7,14,9,8,6,6,9,7,11,10,12,18,38,32,27,40,27,43,31,38,40,32,39,34,27,27,25,33,38,38,38,39,33,40,39,38,27,32,34,33,35,40,47,38,29,31,30,36,38,39,35,30,39,28,45,1e+08,33,39,33,27,38,30,33,33,32,29,31,47,36,34,34,30,29,35,27,27,37,32,40,33,30,46,38,38,41,41,41,34,46,37,38,36,40,38,30,35,27,35,30,27,37,41,37,33,27,27,32,45,35,30,44,30
8,11,11,8,10,9,6,9,8,11,13,13,9,9,6,8,8,14,11,11,9,12,8,11,9,8,6,7,7,12,9,10,16,10,10,13,14,11,10,9,11,13,11,13,13,14,14,9,8,8,16,9,13,15,10,14,15,14,6,9,11,8,10,18,13,9,8,11,14,11,7,12,15,9,17,9,9,10,11,12,10,17,9,17,11,10,16,7,9,12,12,13,16,13,11,16,7,10,10,15,38,33,30,31,28,39,29,31,40,28,34,31,27,22,23,30,39,31,27,39,29,39,37,40,25,39,31,33,36,40,38,47,30,34,34,36,36,31,27,33,40,32,40,33,1e+08,42,39,33,34,38,38,30,30,35,33,48,41,32,36,31,26,45,37,28,31,33,43,32,31,41,34,39,36,36,35,36,35,31,41,40,45,33,33,38,33,31,40,29,29,35,30,23,30,38,27,41,37,33,39,34
11,16,12,9,8,7,11,7,8,10,12,11,16,13,9,12,2,9,9,6,8,10,12,16,9,11,9,13,5,11,10,14,9,10,10,7,12,14,13,13,10,12,11,11,14,12,12,10,9,12,13,9,10,10,11,12,11,9,12,11,13,4,11,12,11,11,11,10,12,12,12,12,12,16,12,17,11,9,9,11,12,11,13,13,10,16,12,10,10,10,10,16,9,10,12,10,11,10,9,11,42,42,31,37,34,43,32,41,41,30,34,33,27,28,25,34,42,36,35,37,30,40,38,40,24,41,30,30,33,42,44,36,31,32,33,34,35,32,32,29,36,28,43,39,42,1e+08,38,35,42,35,41,31,34,35,35,43,45,30,37,33,25,38,30,35,32,27,39,40,30,42,37,39,47,33,38,33,41,36,39,38,42,36,37,42,34,33,34,31,35,39,38,32,30,36,29,41,38,33,42,39
11,13,12,10,8,9,8,9,10,9,12,16,8,9,3,9,10,14,9,7,9,9,7,14,8,8,7,5,8,15,9,10,12,12,5,10,12,12,8,9,6,9,9,13,10,11,16,7,12,13,15,11,14,10,12,11,17,11,10,10,12,11,11,15,11,13,9,9,12,11,10,12,8,11,13,12,12,9,11,12,9,9,13,16,11,13,17,10,10,11,12,16,11,12,11,12,11,9,12,13,41,35,27,31,25,39,30,34,41,27,37,31,28,28,21,29,38,29,27,35,28,43,31,39,30,39,31,31,34,38,35,35,25,39,31,32,36,28,26,33,38,28,33,33,39,38,1e+08,28,32,37,38,30,31,30,31,40,41,26,33,29,23,41,34,31,29,29,42,31,36,40,42,43,32,36,37,28,30,31,35,39,40,30,31,38,30,29,33,27,29,34,28,23,25,39,30,38,37,29,37,34
18,5,8,14,12,17,3,21,8,9,9,10,16,5,6,3,8,12,10,5,9,14,5,20,17,9,5,13,13,6,18,7,8,15,5,14,10,12,6,10,6,15,9,6,17,18,5,13,3,14,6,5,16,8,8,7,16,6,12,7,6,8,11,7,6,5,10,5,5,8,3,7,7,7,11,19,17,8,5,5,24,12,7,16,11,5,13,12,10,10,9,5,13,9,14,12,6,24,18,12,28,30,44,33,35,34,51,32,33,40,28,38,30,41,31,39,29,34,26,25,16,31,39,26,19,31,45,41,32,25,37,34,41,23,33,37,32,35,15,39,26,42,33,27,33,35,28,1e+08,30,27,31,18,41,50,32,24,28,42,37,38,16,30,29,34,40,36,29,41,24,33,28,31,28,36,32,30,25,39,35,28,34,40,40,33,41,32,41,46,38,32,32,17,40,27,38,30,30,41,27,43
10,11,6,9,8,12,6,10,9,7,16,8,16,7,13,4,1,11,12,13,8,11,7,10,12,7,4,9,9,5,10,11,8,17,15,8,5,7,7,7,11,10,7,4,14,14,6,7,5,13,7,7,10,8,6,8,16,10,5,6,6,9,13,5,6,8,7,9,8,6,5,10,6,7,13,16,14,5,8,9,13,10,8,13,12,7,9,9,6,10,8,6,10,9,14,11,8,12,13,14,39,38,30,43,29,44,33,42,42,28,43,40,25,21,28,33,33,40,48,43,35,40,41,45,29,37,31,33,35,37,40,41,36,38,31,31,38,45,34,33,41,28,48,38,34,42,32,30,1e+08,36,36,36,32,34,39,44,40,27,30,28,29,40,30,36,36,31,35,36,27,42,39,38,49,40,37,31,46,34,39,35,45,38,36,43,30,38,35,25,38,46,41,34,31,35,30,40,38,31,39,39
10,14,12,10,7,7,6,9,7,11,8,14,6,13,5,6,6,10,8,9,7,7,10,9,5,11,12,15,8,11,10,9,8,8,7,11,6,11,5,17,11,10,12,8,7,8,9,4,7,10,9,13,11,8,12,11,8,9,9,13,9,7,7,8,10,10,6,4,6,7,8,7,12,10,11,7,10,10,8,11,10,11,14,11,9,13,10,7,9,8,14,16,8,14,6,10,13,9,9,11,40,30,25,29,31,37,27,33,44,27,39,35,26,24,19,26,44,32,29,43,29,41,28,35,27,34,31,25,42,40,32,43,26,39,25,33,31,29,24,29,35,25,34,30,38,35,37,27,36,1e+08,41,35,28,28,34,38,35,24,34,25,26,39,33,31,33,25,40,28,28,42,49,36,37,48,36,32,39,37,36,39,46,25,28,31,26,33,34,26,30,33,29,32,28,36,28,38,42,28,40,34
13,14,13,13,10,12,7,12,8,3,15,9,16,14,6,5,4,10,12,5,8,9,10,12,11,8,10,12,7,15,11,13,11,13,8,18,7,7,6,12,15,13,12,7,12,14,16,4,10,11,14,16,21,13,15,9,20,10,11,15,11,9,11,14,13,13,11,11,10,6,9,13,9,10,13,16,12,9,7,11,15,11,13,21,14,11,18,13,9,11,16,16,13,11,15,14,12,10,16,12,42,31,31,36,34,42,28,37,44,33,41,36,23,24,22,30,40,28,31,39,24,39,34,40,31,35,30,29,40,43,34,40,32,39,30,28,34,31,26,34,42,29,36,33,38,41,38,31,36,41,1e+08,31,29,33,35,40,40,29,34,31,25,43,32,26,28,29,43,38,33,38,43,43,34,44,31,30,36,31,37,41,48,32,33,39,37,35,43,29,32,33,37,23,33,36,29,43,38,34,41,36
4,7,6,6,12,5,4,5,12,4,22,8,5,28,5,4,3,15,6,8,5,5,9,7,3,13,5,7,4,19,5,7,18,8,8,7,5,5,3,7,8,9,7,7,10,16,18,5,3,4,18,6,5,8,6,6,18,9,9,11,2,12,8,8,16,12,13,21,20,9,3,6,6,5,15,8,5,5,12,15,3,17,7,15,7,5,17,2,4,6,10,5,8,8,6,15,5,6,7,15,29,33,15,29,21,34,19,29,36,20,34,24,22,16,14,20,38,23,29,29,39,29,27,34,25,29,19,17,32,33,30,32,18,38,24,26,27,23,33,21,34,20,36,33,30,31,30,18,36,35,31,1e+08,20,19,26,34,35,19,22,16,35,34,29,32,18,18,32,21,23,32,35,29,40,37,30,29,38,25,37,36,37,21,19,38,18,21,27,16,25,34,36,40,18,24,22,31,39,18,40,28
8,10,8,6,8,14,4,8,2,7,6,8,7,4,7,6,3,21,8,3,6,17,5,6,5,4,4,6,14,4,3,7,6,12,10,7,9,8,4,5,4,2,4,8,15,12,8,5,6,4,7,5,5,6,8,5,10,6,9,9,10,6,8,6,5,6,3,5,6,8,5,7,5,6,10,8,9,7,6,5,9,7,10,9,6,7,8,5,7,6,8,6,5,10,8,8,4,14,14,17,29,36,36,39,25,37,37,33,31,42,28,35,17,37,30,37,30,43,34,34,17,35,38,31,21,33,43,36,37,36,34,39,40,27,29,33,33,37,18,49,36,35,35,32,30,34,31,41,32,28,29,20,1e+08,40,31,36,29,43,38,42,19,34,29,29,46,35,38,36,28,39,31,33,36,28,34,24,31,34,33,37,35,46,38,28,37,36,42,39,42,37,28,17,42,32,44,32,36,38,33,39
13,9,11,11,16,9,9,13,7,12,15,15,13,8,7,9,6,15,15,6,15,11,4,14,13,6,12,7,9,6,15,14,12,12,10,12,15,14,8,7,3,18,12,14,11,10,12,12,8,10,13,8,13,12,8,12,13,8,8,8,10,9,17,12,4,10,15,14,9,13,10,11,12,11,14,14,11,14,11,9,13,9,11,12,13,7,13,11,13,24,5,6,17,13,14,14,6,11,15,11,30,35,40,36,34,35,47,30,37,44,29,36,21,36,39,47,31,40,30,33,19,32,37,27,26,32,42,41,31,32,32,33,46,27,36,38,31,32,18,44,29,37,36,29,35,35,30,50,34,28,33,19,40,1e+08,33,36,30,45,33,49,28,29,25,34,39,38,32,42,22,36,33,28,32,30,29,36,31,42,32,33,37,42,41,32,50,36,39,40,32,31,34,23,45,30,38,35,31,51,33,37
11,11,11,15,9,8,13,9,6,10,10,14,15,9,10,12,4,10,10,11,9,14,8,13,10,7,10,8,8,11,13,14,13,8,12,9,14,14,15,11,9,13,11,13,8,10,12,7,11,12,12,10,13,12,11,15,13,7,12,10,14,6,11,9,9,10,9,10,12,13,12,13,11,15,10,14,11,13,13,14,15,7,16,11,9,11,12,12,13,11,8,11,10,13,13,9,12,9,14,9,30,31,32,36,30,36,30,38,35,33,33,47,23,27,24,30,31,37,38,35,25,31,33,35,29,37,32,37,29,33,34,35,31,38,36,33,35,38,25,33,39,29,43,31,33,35,31,32,39,34,35,26,31,33,1e+08,33,30,28,39,29,30,32,25,27,30,27,32,39,31,38,36,35,35,32,29,29,36,32,30,30,33,38,35,27,31,36,34,26,41,31,34,25,31,33,29,35,31,32,33,32
10,13,15,7,9,9,10,7,6,7,16,14,6,11,10,15,4,15,9,8,9,11,11,7,6,7,9,7,9,16,5,15,15,13,9,9,15,13,12,9,7,9,9,11,11,12,19,7,13,7,19,12,8,10,12,13,13,12,10,13,13,10,12,14,13,16,10,11,17,12,13,15,10,13,14,7,10,11,17,12,7,10,16,11,11,12,9,5,13,10,12,14,8,15,10,10,9,9,9,12,45,37,31,35,28,45,31,40,48,32,42,35,25,24,23,33,45,39,36,41,31,39,38,41,26,37,32,34,36,48,37,44,32,38,34,33,39,39,36,33,46,28,46,47,48,43,40,24,44,38,40,34,36,36,33,1e+08,43,29,38,31,30,40,32,39,34,26,46,37,28,46,42,42,48,41,39,37,41,32,44,45,49,35,33,42,29,33,37,26,38,43,42,28,28,35,31,47,37,33,48,37
10,18,5,5,9,5,4,8,7,7,21,10,13,17,7,4,4,14,13,3,6,4,10,11,9,7,9,11,4,18,5,8,13,12,12,7,6,9,5,12,12,9,4,9,12,20,13,5,5,10,13,10,6,9,9,5,18,7,11,11,5,6,14,12,21,14,11,13,12,11,3,8,5,3,18,14,10,6,12,10,5,13,14,16,10,7,15,6,8,10,11,10,6,8,13,15,6,9,9,19,48,40,30,31,26,47,31,37,43,27,39,32,28,24,26,29,41,29,34,39,30,38,32,45,27,39,31,29,34,42,35,45,27,41,29,28,38,31,31,31,43,30,38,36,41,45,41,28,40,35,40,35,29,30,30,43,1e+08,29,30,28,32,38,34,30,31,29,43,32,32,44,39,33,40,35,36,31,37,32,38,42,38,32,32,41,26,35,30,33,27,38,34,25,29,35,27,40,34,25,41,33
3,13,7,6,12,11,3,8,6,9,15,8,16,9,8,4,7,11,20,8,8,9,4,7,5,11,4,8,10,4,6,11,7,16,16,13,10,3,3,5,3,10,6,8,17,12,12,8,3,13,12,10,8,10,14,5,17,7,7,15,5,8,16,8,5,3,6,11,5,11,4,16,7,6,20,13,13,7,7,6,11,9,7,20,12,2,15,8,5,13,9,5,6,8,15,13,5,14,17,14,26,24,40,32,34,32,38,36,30,42,21,32,28,39,37,36,30,33,27,26,18,25,35,27,20,25,44,34,33,32,35,31,37,22,35,36,37,32,16,41,29,32,28,34,32,30,26,42,27,24,29,19,43,45,28,29,29,1e+08,36,39,24,33,29,33,47,39,31,34,28,35,29,29,28,33,34,32,28,41,29,28,26,39,31,31,41,32,38,44,38,32,26,24,44,26,44,27,27,45,30,34
13,17,16,6,11,3,18,8,3,16,19,17,15,6,6,16,6,17,15,4,11,14,7,12,12,6,7,9,11,8,11,19,13,11,11,10,18,22,18,10,6,14,15,19,12,7,13,13,14,17,15,8,11,15,7,20,11,13,13,7,13,5,19,17,9,11,10,14,15,17,15,14,16,16,16,13,13,13,14,17,10,15,14,12,14,16,12,12,17,15,8,9,15,16,16,11,13,8,14,14,32,31,34,40,32,35,41,32,38,36,31,32,27,36,28,29,36,53,39,34,18,31,38,31,17,29,40,33,31,33,37,33,38,28,30,31,33,41,24,40,39,32,37,34,36,37,33,37,30,34,34,22,38,33,39,38,30,36,1e+08,32,21,34,25,27,37,30,33,41,26,36,32,30,35,35,39,36,35,35,32,40,40,40,39,34,29,35,37,39,39,33,30,25,35,28,37,37,34,34,35,37
13,12,14,14,10,16,10,7,6,12,13,12,13,12,8,11,3,5,12,6,13,9,13,14,7,3,10,10,11,8,10,9,11,14,14,10,14,14,10,9,8,14,14,14,22,17,11,14,13,13,11,10,12,12,7,10,14,13,7,9,12,5,13,12,11,12,14,14,11,13,13,11,10,11,13,13,18,13,12,11,11,14,14,13,10,10,15,9,13,16,10,8,16,10,16,10,12,17,16,6,25,35,36,35,34,32,39,32,33,50,27,37,20,33,29,43,27,37,29,36,22,26,33,27,25,32,38,44,31,31,30,28,47,27,36,37,31,37,21,44,29,29,34,30,31,33,29,38,28,25,31,16,42,49,29,31,28,39,32,1e+08,29,27,25,32,39,34,27,37,24,35,34,37,27,30,31,39,31,37,30,30,31,37,37,29,50,39,34,43,35,27,35,24,52,31,35,28,33,48,33,34
6,16,13,5,8,4,12,4,10,5,18,8,7,21,11,14,2,10,6,14,8,3,19,6,3,14,15,12,4,16,8,14,12,4,13,5,14,13,11,16,13,9,6,8,4,10,19,6,13,5,21,16,3,7,18,11,11,7,15,19,16,11,9,7,17,21,10,13,15,16,14,17,5,13,14,8,5,14,12,12,4,9,16,9,8,13,13,3,12,10,13,15,7,15,8,9,13,5,7,6,26,31,23,32,24,30,19,29,28,25,30,25,18,24,18,25,27,21,26,29,41,30,26,27,22,29,21,23,21,27,26,24,25,33,34,26,24,25,33,29,25,20,34,29,26,25,23,16,29,26,25,35,19,28,30,30,32,24,21,29,1e+08,22,22,23,23,18,23,22,23,27,22,27,28,24,22,33,27,33,24,21,28,18,29,29,27,24,19,24,25,25,31,47,28,25,15,27,28,30,29,26
7,19,14,3,9,10,5,10,7,12,13,11,12,8,7,6,7,15,12,8,5,7,6,10,6,10,8,5,3,10,8,12,12,14,12,14,10,10,7,9,5,10,6,8,15,11,9,8,8,14,11,11,15,13,13,9,15,17,9,13,11,9,12,12,11,7,8,6,10,11,8,14,7,8,19,13,12,12,8,12,4,15,13,18,9,9,13,4,7,10,15,19,13,15,12,13,5,13,11,20,47,36,26,30,27,45,25,38,45,23,41,32,33,32,23,36,44,35,29,34,24,48,35,40,24,33,34,28,41,40,40,45,28,31,28,34,32,33,28,41,44,30,34,35,45,38,41,30,40,39,43,34,34,29,32,40,38,33,34,27,22,1e+08,33,25,37,34,48,32,31,40,36,35,37,41,37,27,36,35,45,41,45,32,32,38,31,31,41,30,32,41,30,26,36,34,30,46,37,28,41,35
14,7,7,9,5,8,4,10,9,6,10,7,9,10,7,4,6,10,6,7,4,10,6,13,5,18,6,16,8,16,9,4,13,13,7,4,7,10,6,16,4,14,10,7,9,23,11,10,5,8,11,7,8,7,6,6,11,4,10,5,5,8,6,6,17,10,9,12,11,13,4,4,8,5,6,7,13,2,9,8,19,13,9,6,5,8,11,3,11,5,10,7,11,6,8,13,8,21,9,10,29,30,25,28,20,37,26,29,31,23,32,30,29,27,22,29,33,26,20,34,24,36,29,34,24,35,28,26,34,42,34,38,28,28,26,33,34,27,20,26,33,32,31,27,37,30,34,29,30,33,32,29,29,25,25,32,34,29,25,25,22,33,1e+08,29,27,30,34,29,23,37,34,32,32,33,33,21,27,27,33,31,28,28,24,33,26,29,31,25,27,30,30,22,31,34,29,27,38,27,37,31
13,7,9,15,8,11,12,11,12,4,15,12,8,7,12,11,2,13,9,12,8,12,13,10,9,9,2,8,14,11,9,8,9,12,17,3,6,9,6,8,8,8,9,10,11,15,15,8,9,9,13,11,12,7,6,12,10,9,9,6,13,17,11,12,9,11,12,16,13,10,10,7,11,9,11,9,12,6,14,13,13,10,11,11,11,7,15,9,10,4,12,7,10,4,12,11,12,13,11,8,33,26,36,36,44,34,33,35,35,29,33,30,20,29,31,31,32,32,34,31,29,37,28,34,23,28,30,29,33,28,34,28,29,32,30,34,29,32,28,33,28,31,39,27,28,35,31,34,36,31,26,32,29,34,27,39,30,33,27,32,23,25,29,1e+08,34,33,26,24,25,32,32,31,39,36,37,39,40,29,29,29,38,30,34,30,37,26,35,33,32,33,38,29,33,29,36,28,35,35,30,35
6,13,4,4,7,7,4,6,3,5,12,9,12,11,7,5,5,16,14,6,5,11,4,5,4,5,3,6,11,6,3,11,4,15,10,7,3,8,3,6,5,5,4,7,15,9,9,3,5,11,9,8,3,6,7,3,14,5,6,10,4,8,13,7,9,4,4,7,3,6,3,9,2,2,11,12,13,6,5,4,4,5,10,11,9,3,10,4,7,7,7,6,4,4,12,5,5,10,12,17,33,28,36,33,34,35,38,33,31,41,25,31,27,40,30,46,36,43,34,32,19,30,37,33,21,28,51,38,38,33,34,36,46,24,27,32,37,39,19,41,34,38,35,37,31,32,29,40,36,33,28,18,46,39,30,34,31,47,37,39,23,37,27,34,1e+08,43,37,33,34,42,32,35,32,32,43,29,32,40,35,35,35,42,34,35,43,36,37,41,40,36,29,18,46,31,47,31,30,41,31,38
11,18,8,11,6,10,7,6,4,5,14,12,14,10,8,5,7,12,21,6,7,15,9,11,10,10,6,13,16,7,5,12,7,17,13,6,5,10,9,13,8,10,6,9,17,15,11,5,8,11,9,13,10,7,10,9,17,7,13,11,11,8,17,9,11,11,6,6,8,8,7,13,6,10,16,15,17,6,5,6,15,6,14,15,14,8,11,9,13,7,12,10,6,3,15,10,11,11,8,18,34,30,36,23,31,34,36,32,31,28,29,30,25,35,38,35,33,31,29,33,17,26,33,29,21,26,38,29,33,28,33,29,34,26,30,33,36,33,16,35,27,36,26,32,33,27,29,36,31,25,29,18,35,38,27,26,29,39,30,34,18,34,30,33,43,1e+08,30,31,32,27,28,31,26,27,33,27,26,35,28,31,27,34,31,28,39,32,35,40,26,30,27,19,38,32,43,29,24,37,27,31
8,16,13,10,10,8,7,10,9,5,13,7,6,11,4,9,5,14,10,6,4,12,11,9,3,4,8,8,10,15,7,9,14,13,10,11,17,8,9,8,5,6,9,7,13,16,14,4,10,6,12,8,14,8,11,13,16,11,13,10,11,7,7,12,14,14,8,11,18,7,10,10,9,12,11,8,14,8,9,11,11,10,15,12,5,10,11,5,9,5,19,20,11,13,11,10,11,12,16,15,40,33,30,27,28,44,32,32,42,34,36,31,29,30,23,34,40,34,35,35,28,49,36,42,24,34,28,27,40,37,35,46,27,39,29,33,38,31,25,30,44,30,37,40,43,39,42,29,35,40,43,32,38,32,32,46,43,31,33,27,23,48,34,26,37,30,1e+08,28,28,44,41,40,40,41,39,28,40,32,44,41,43,36,30,35,27,33,42,28,31,37,33,24,30,38,31,40,38,28,46,29
18,11,10,18,17,17,9,19,4,15,20,12,20,4,4,7,5,11,18,3,15,14,7,20,17,3,6,6,11,4,19,12,10,18,11,18,11,9,11,3,4,17,16,13,18,17,9,15,7,20,10,8,22,13,8,12,20,14,7,10,7,7,19,12,4,7,17,17,8,9,6,12,15,9,19,22,20,11,10,8,18,15,9,21,18,8,19,17,8,18,7,6,18,11,22,18,7,17,19,17,34,35,28,38,22,36,37,35,33,35,33,41,24,26,30,36,29,42,38,33,24,30,45,37,25,29,31,45,33,35,40,35,40,26,40,36,39,41,25,35,34,32,40,33,32,40,31,41,36,28,38,21,36,42,39,37,32,34,41,37,22,32,29,24,33,31,28,1e+08,26,36,34,34,31,35,34,28,35,34,32,33,33,42,43,34,36,42,37,37,41,42,36,24,37,29,34,35,34,37,32,32
8,10,4,7,10,4,6,8,8,7,13,10,13,9,8,3,9,12,11,5,8,6,5,9,10,7,4,8,7,9,10,12,7,9,7,14,5,8,4,6,8,11,11,9,7,7,11,8,3,11,12,9,12,11,11,8,8,10,8,9,7,14,12,12,10,4,9,9,6,4,2,8,9,6,15,13,7,9,5,6,7,9,8,13,14,5,14,13,6,12,12,8,10,7,11,11,6,4,11,9,35,32,24,21,29,32,25,29,30,25,35,31,26,24,20,29,31,28,27,34,22,28,29,33,27,31,31,26,28,32,31,30,26,28,27,28,30,24,23,29,30,26,26,30,31,30,36,24,27,28,33,23,28,22,31,28,32,28,26,24,23,31,23,25,34,32,28,26,1e+08,33,35,32,28,30,37,25,28,26,30,35,30,23,29,30,27,29,27,24,28,22,24,21,28,41,24,31,31,29,29,30
8,7,6,8,10,9,6,7,8,8,10,12,8,10,7,4,6,11,8,12,8,12,6,9,6,12,8,6,9,9,7,8,9,11,11,10,6,10,3,9,5,13,8,10,9,16,11,5,5,7,11,10,9,8,10,10,10,12,8,8,7,9,11,10,11,6,6,12,7,9,5,6,9,7,12,9,11,8,9,11,10,13,11,13,9,6,14,7,8,13,13,10,7,14,9,15,5,13,11,11,40,40,25,41,31,48,30,42,51,36,43,41,24,27,25,37,43,34,37,42,33,48,37,42,29,41,39,33,39,44,40,49,32,40,32,35,40,37,35,39,46,28,39,46,41,42,40,33,42,42,38,32,39,36,38,46,44,35,36,35,27,40,37,32,42,27,44,36,33,1e+08,41,37,43,43,44,34,39,32,42,46,44,40,34,47,35,36,37,34,35,45,32,30,32,39,34,42,37,34,50,32
8,13,14,10,6,8,9,7,8,8,12,12,10,11,6,8,7,12,13,7,6,7,7,12,6,10,13,10,8,12,11,14,7,11,9,13,11,14,8,12,7,11,12,8,10,11,12,5,11,11,10,13,10,10,12,12,12,13,10,11,11,7,11,11,13,13,8,6,10,8,9,11,12,12,13,12,11,9,8,13,6,10,12,16,13,15,12,10,9,11,12,14,9,14,11,10,10,7,11,16,41,36,29,29,33,40,33,32,47,29,37,37,26,26,26,30,36,34,30,40,30,43,34,39,34,35,30,32,42,41,32,36,33,39,33,33,36,32,29,32,38,28,38,38,34,37,42,28,39,49,43,35,31,33,36,42,39,29,32,34,22,36,34,32,32,28,41,34,35,41,1e+08,41,38,47,34,28,37,32,36,45,43,30,33,38,30,32,36,29,35,35,34,27,31,37,32,42,42,31,40,30
12,11,12,11,6,12,8,10,12,8,9,7,10,6,8,6,5,14,10,6,8,13,7,13,7,8,8,7,13,8,10,9,12,14,10,13,11,10,6,6,7,9,12,10,16,18,10,8,7,11,9,9,15,15,9,10,15,13,7,8,9,10,9,15,12,8,10,10,12,6,6,11,10,7,13,13,12,8,6,11,10,14,10,13,8,6,12,9,11,11,10,11,18,8,14,11,9,13,15,11,37,35,24,31,28,39,28,38,44,34,36,36,25,27,20,32,34,34,33,40,28,42,35,38,26,40,32,32,33,37,35,39,34,35,35,33,38,38,30,29,44,28,37,38,39,39,43,31,38,36,43,29,33,28,35,42,33,29,30,37,27,35,32,31,35,31,40,34,32,37,41,1e+08,34,39,35,31,35,36,37,40,38,28,31,37,32,33,36,30,35,38,38,25,32,38,32,40,35,31,42,34
7,11,8,5,5,6,5,4,7,7,12,8,10,14,16,7,4,9,7,12,5,10,11,8,7,6,9,13,10,13,4,6,7,7,19,5,7,9,9,10,15,6,4,8,8,8,9,6,5,10,10,11,4,6,8,6,9,4,7,9,6,8,10,6,12,11,13,7,9,6,5,4,6,6,5,11,14,7,9,7,5,5,19,6,6,8,6,5,7,9,12,7,7,8,13,7,9,5,13,10,42,32,21,40,37,46,32,42,45,27,41,33,26,26,24,33,37,39,47,39,32,47,37,38,24,38,28,31,34,39,41,45,32,36,30,31,35,47,41,34,40,25,52,41,36,47,32,28,49,37,34,40,36,32,35,48,40,28,35,27,28,37,32,39,32,26,40,31,28,43,38,34,1e+08,40,43,38,53,30,41,40,47,37,34,39,24,34,36,24,42,41,48,32,32,32,31,44,38,28,39,38
11,10,11,13,10,8,7,13,9,12,13,11,17,11,11,6,9,3,14,11,8,5,6,14,12,12,11,12,7,9,10,7,8,13,15,15,11,9,6,14,9,10,14,3,8,10,9,5,8,16,10,9,15,9,6,9,16,13,6,9,10,9,11,9,11,13,8,7,9,5,7,9,14,10,9,16,14,5,7,8,10,9,12,15,12,15,12,16,6,7,9,7,9,7,18,11,11,6,14,6,37,28,29,38,34,40,34,34,41,31,45,40,22,28,25,31,39,37,35,37,29,39,38,32,25,29,35,30,53,39,38,38,29,38,31,35,36,40,31,36,35,28,42,41,36,33,36,36,40,48,44,37,28,30,32,41,35,33,35,30,24,41,33,36,32,27,41,35,30,43,47,39,40,1e+08,38,39,41,37,39,39,46,38,35,40,32,33,42,33,35,38,35,34,35,36,28,46,49,34,41,37
8,17,4,8,5,11,5,6,8,4,17,9,13,8,9,3,7,17,18,9,4,11,5,8,3,9,6,7,11,8,5,20,6,18,13,5,4,6,3,5,8,3,7,7,18,12,14,4,4,15,14,14,7,3,15,6,17,4,6,17,4,16,15,8,6,6,8,5,4,5,3,20,6,4,17,17,16,9,7,5,10,6,9,18,16,2,17,6,6,12,11,6,4,4,15,6,5,12,12,21,40,35,26,38,28,42,29,39,43,30,39,36,30,27,22,31,48,40,39,38,32,37,38,34,20,38,42,30,36,39,51,42,34,30,26,33,40,37,31,31,38,25,44,41,35,38,37,32,37,36,31,30,34,29,29,39,36,34,39,31,22,37,33,37,43,33,39,34,37,44,34,35,43,38,1e+08,37,42,34,37,36,38,31,32,32,30,41,34,29,38,44,32,29,30,30,31,37,42,29,36,37
8,20,13,9,13,9,14,10,14,9,14,16,9,15,15,16,1,5,13,13,11,5,16,9,8,12,16,17,9,18,7,14,16,11,16,10,15,15,12,18,15,9,8,13,10,6,15,8,14,8,14,15,7,14,18,14,10,9,14,18,17,12,15,14,16,14,8,7,14,17,14,17,13,14,11,10,10,14,17,12,11,11,19,10,12,13,6,7,16,9,15,16,10,16,9,12,14,11,9,6,32,30,37,38,36,30,33,35,36,38,34,38,21,30,23,31,32,33,38,33,27,33,35,33,24,35,30,34,23,36,34,29,32,32,42,38,32,36,31,37,30,27,42,34,36,33,28,30,31,32,30,29,24,36,29,37,31,32,36,39,33,27,21,39,29,27,28,28,25,34,28,31,38,39,37,1e+08,40,35,32,31,41,28,36,30,37,34,36,35,33,30,40,31,38,27,29,31,37,37,31,40
9,16,11,8,7,9,11,7,11,8,15,11,15,13,5,11,2,7,9,7,7,9,10,9,6,10,11,8,7,15,6,12,10,14,15,6,13,12,12,10,6,5,7,9,13,8,14,7,11,14,16,12,6,9,12,13,14,8,11,13,10,12,15,10,10,14,11,6,15,11,9,13,8,11,10,16,15,13,13,11,9,8,18,9,8,11,6,7,12,7,6,13,6,9,15,7,9,8,16,10,41,34,27,43,34,43,29,43,46,29,39,34,25,25,23,31,38,41,45,40,34,40,44,41,24,32,31,36,30,39,44,39,27,41,31,36,34,45,38,34,42,27,52,46,35,41,30,25,46,39,36,38,31,31,36,41,37,28,35,31,27,36,27,40,32,26,40,35,28,39,37,35,53,41,42,40,1e+08,38,38,31,48,34,36,35,28,34,38,25,43,38,44,36,31,30,33,37,39,33,40,36
6,17,14,8,7,7,12,8,6,10,8,15,10,13,8,14,6,10,9,6,6,9,14,7,8,4,15,11,6,17,7,15,13,8,9,6,14,14,15,13,11,8,7,14,7,7,18,8,13,7,17,15,6,13,17,13,9,8,15,18,19,9,10,14,14,16,6,8,15,13,13,16,12,15,10,9,9,14,12,13,7,8,17,9,9,16,10,3,14,13,12,15,6,14,9,7,18,6,9,6,36,31,43,33,42,39,40,36,33,40,28,39,31,42,36,46,31,39,35,32,24,36,34,32,22,29,43,42,30,36,36,30,39,31,36,38,34,34,23,40,36,32,36,37,31,36,31,39,34,37,31,25,34,42,32,32,32,41,35,37,33,35,27,29,40,35,32,34,26,32,32,36,30,37,34,35,38,1e+08,29,33,36,34,40,35,39,40,39,40,37,29,30,25,37,28,37,32,31,42,33,43
10,8,10,10,9,9,4,10,7,10,16,11,10,12,7,3,2,11,9,6,8,8,6,15,11,11,7,6,9,13,8,5,13,8,8,18,5,9,5,11,7,14,7,12,8,19,12,8,4,9,10,8,14,10,8,5,12,16,11,7,8,10,9,17,15,14,15,15,11,10,4,3,7,4,13,9,11,8,12,13,9,17,9,17,11,7,14,9,7,9,15,12,9,13,8,21,7,14,12,14,43,40,27,33,27,42,33,37,43,30,36,33,25,27,21,33,47,31,38,37,31,37,33,42,27,41,28,35,33,41,36,48,32,35,31,34,33,38,35,37,47,30,39,38,41,39,35,35,39,36,37,37,33,32,30,44,38,29,32,30,24,45,33,29,35,28,44,32,30,42,36,37,41,39,37,32,38,29,1e+08,42,48,30,32,47,29,34,40,27,32,40,39,30,29,32,29,43,42,31,46,37
8,12,10,7,6,6,8,4,6,9,8,13,4,9,6,9,8,17,8,9,6,12,7,7,5,7,7,8,7,8,5,16,12,8,8,5,13,13,10,11,8,11,11,11,7,13,15,6,11,7,15,13,9,7,10,16,15,11,9,12,11,9,7,11,15,12,6,12,14,10,10,11,13,12,16,7,7,11,9,14,9,13,11,13,9,14,15,9,8,12,14,14,8,12,7,11,11,7,8,15,35,37,28,35,27,46,29,33,37,29,38,31,28,29,27,34,46,34,31,44,27,41,40,37,26,37,36,30,38,41,40,42,29,31,29,36,37,30,31,37,44,32,38,36,40,38,39,28,35,39,41,36,37,33,30,45,42,28,40,30,21,41,31,29,35,31,41,33,35,46,45,40,40,39,36,31,31,33,42,1e+08,44,33,34,38,29,34,38,29,33,38,31,23,33,39,33,40,45,29,41,36
10,10,17,7,6,10,11,10,8,7,13,14,7,9,11,10,5,18,7,9,6,11,10,8,7,7,9,12,7,11,7,15,13,11,10,12,13,12,12,10,13,10,8,10,12,12,17,7,8,6,17,13,16,14,15,14,15,16,8,14,12,10,8,16,11,13,10,8,14,11,12,16,11,12,17,10,11,14,15,14,12,12,9,17,15,13,14,6,11,14,16,14,11,19,9,10,6,11,15,17,49,34,28,43,33,44,33,33,49,32,43,32,25,26,24,28,42,40,41,41,30,48,37,42,25,36,34,33,41,39,41,45,34,40,29,29,32,39,29,36,49,31,42,40,45,42,40,34,45,46,48,37,35,37,33,49,38,26,40,31,28,45,28,38,35,27,43,33,30,44,43,38,47,46,38,41,48,36,48,44,1e+08,30,34,40,33,35,52,21,38,38,40,31,29,35,33,55,50,31,46,39
10,5,4,11,13,21,3,16,5,8,11,5,10,4,2,3,5,21,10,6,9,21,3,12,12,4,7,2,9,4,13,4,6,16,11,13,4,2,3,3,4,11,11,5,16,16,3,7,4,11,5,4,16,6,8,5,12,6,9,8,3,5,11,4,3,3,9,8,3,5,3,6,9,6,12,14,14,9,5,6,11,6,16,15,9,2,14,11,3,11,8,5,14,9,13,13,7,16,14,18,24,34,39,42,28,41,42,34,32,43,28,37,16,30,34,39,26,48,47,35,20,33,46,30,18,29,44,42,34,35,38,33,43,25,31,34,36,45,18,37,38,29,44,38,33,36,30,40,38,25,32,21,46,42,38,35,32,39,40,37,18,32,28,30,42,34,36,42,23,40,30,28,37,38,31,28,34,34,30,33,30,1e+08,39,34,37,41,34,37,48,33,37,20,36,30,37,35,30,35,37,34
12,15,13,15,17,14,12,18,4,19,20,16,20,14,7,13,2,12,16,4,16,11,12,18,17,4,13,12,10,12,15,14,15,14,11,18,10,14,13,13,10,14,16,13,15,12,13,18,12,20,15,13,18,13,12,14,13,18,13,13,13,4,20,13,13,14,15,16,13,14,11,12,15,11,18,19,16,14,15,12,14,18,15,19,19,12,19,17,13,16,8,13,15,13,19,18,13,12,18,13,35,33,32,40,33,35,34,34,33,40,30,39,26,27,22,37,32,38,36,29,22,36,36,32,24,33,38,40,30,30,36,31,36,33,39,32,36,41,24,46,36,31,37,30,33,37,31,40,36,28,33,19,38,41,35,33,32,31,39,37,29,32,24,34,34,31,30,43,29,34,33,31,34,35,32,36,36,40,32,34,34,39,1e+08,35,40,34,36,34,45,30,37,27,38,29,31,28,34,36,31,35
14,10,5,8,11,7,4,10,7,5,22,9,12,17,5,5,8,17,12,5,8,6,8,14,10,7,7,7,7,20,10,6,15,9,8,12,4,12,4,8,5,16,6,10,9,16,18,6,7,12,16,10,9,8,10,4,18,9,8,8,6,9,13,11,18,14,17,13,14,12,5,8,4,5,13,12,13,8,14,8,10,10,10,14,11,6,18,9,8,10,11,9,9,8,12,17,6,9,14,14,40,34,28,33,31,47,33,32,37,33,34,31,28,24,22,34,46,35,39,33,32,41,33,41,23,40,31,35,33,42,38,41,32,33,33,32,34,37,32,31,39,30,38,35,38,42,38,33,43,31,39,38,28,32,27,42,41,31,34,29,29,38,33,30,35,28,35,34,30,47,38,37,39,40,32,30,35,35,47,38,40,34,35,1e+08,31,31,36,30,32,40,40,30,29,32,29,38,35,31,45,35
17,11,19,16,16,15,16,15,4,15,14,19,12,13,9,16,3,13,14,15,14,14,11,16,11,4,6,11,8,7,12,17,13,16,10,13,17,17,14,6,10,16,15,18,19,17,18,13,12,13,20,8,11,14,7,16,12,13,10,8,15,2,14,12,6,13,11,22,12,23,18,17,15,18,17,12,16,15,15,15,14,13,10,14,12,12,16,11,16,14,9,6,12,15,16,11,12,19,13,11,25,28,36,36,37,32,35,37,35,43,24,37,22,37,36,35,29,36,28,26,18,30,34,30,23,30,40,41,34,28,33,30,43,27,34,36,30,32,18,46,27,34,31,27,33,34,30,41,30,26,37,18,37,50,31,29,26,41,29,50,27,31,26,37,43,39,27,36,27,35,30,32,24,32,30,37,28,39,29,29,33,37,40,31,1e+08,33,41,38,38,26,33,19,50,30,33,35,30,49,31,37
13,11,10,13,10,15,8,12,7,15,13,14,9,7,5,6,8,17,11,8,10,20,7,10,10,4,9,6,11,7,12,10,8,14,12,12,9,12,7,5,5,14,9,11,15,14,10,9,6,11,9,15,10,11,10,8,13,11,6,9,8,10,12,11,10,10,9,10,9,9,6,13,8,10,11,14,16,9,8,10,10,11,13,11,12,6,11,8,7,18,12,6,13,9,12,9,12,14,13,14,34,36,29,34,28,36,28,35,36,37,28,39,28,29,29,41,34,38,37,32,22,37,41,37,23,32,40,44,27,31,39,33,37,32,35,31,39,39,25,34,36,33,36,35,31,33,29,32,38,33,35,21,36,36,36,33,35,32,35,39,24,31,29,26,36,32,33,42,29,36,32,33,34,33,41,34,34,40,34,34,35,41,34,31,33,1e+08,32,37,33,35,35,19,33,26,33,36,26,30,32,29
14,8,13,15,11,14,6,14,11,10,16,11,17,7,5,7,2,14,14,3,12,9,5,15,14,7,8,6,12,8,8,8,13,17,9,20,6,7,8,5,8,10,9,10,16,20,11,8,6,17,11,8,27,17,9,7,19,18,6,9,9,15,13,22,9,11,12,15,11,7,5,7,11,6,18,16,14,7,12,13,16,17,8,27,14,8,23,15,8,9,13,11,16,12,16,17,7,14,16,16,41,35,41,39,31,38,39,32,36,38,30,36,21,30,29,37,42,39,34,33,23,36,37,31,21,33,33,41,49,35,41,42,37,31,31,35,32,44,24,41,35,37,35,30,40,34,33,41,35,34,43,27,42,39,34,37,30,38,37,34,19,41,31,35,37,35,42,37,27,37,36,36,36,42,34,36,38,39,40,38,52,34,36,36,41,32,1e+08,37,42,35,35,23,38,31,36,39,38,43,33,42
12,12,6,15,9,12,9,14,4,7,11,7,12,10,4,6,7,8,13,4,7,7,7,13,9,3,8,8,12,6,12,9,8,14,12,9,9,8,3,6,5,6,8,8,14,17,7,10,6,10,7,7,11,5,8,6,13,8,11,10,11,9,11,5,8,10,6,11,5,5,5,8,4,7,9,13,16,3,5,7,14,8,14,13,8,4,13,8,10,10,14,8,8,11,15,9,12,13,16,7,26,31,44,32,35,33,41,27,27,44,24,32,25,41,36,42,27,31,25,26,17,23,32,26,18,29,49,37,28,30,28,30,41,23,35,35,37,33,18,40,26,34,29,27,29,31,27,46,25,26,29,16,39,40,26,26,33,44,39,43,24,30,25,33,41,40,28,37,24,34,29,30,24,33,29,35,25,40,27,29,21,37,34,30,38,37,37,1e+08,34,29,28,21,46,28,41,27,28,39,26,34
11,13,9,15,7,15,8,7,2,8,10,9,11,9,7,7,2,19,10,10,4,18,6,9,6,6,9,6,10,7,6,9,9,16,10,9,10,7,6,5,5,6,6,6,20,15,8,5,6,9,6,9,8,9,11,9,15,6,10,13,9,4,9,8,7,6,6,8,8,7,7,10,8,9,8,11,14,9,7,9,12,6,12,9,8,7,10,10,7,7,11,9,4,9,11,6,9,15,15,18,28,31,27,47,33,34,31,39,30,33,33,36,22,28,26,34,33,44,50,33,22,30,38,32,22,32,38,43,31,35,42,32,41,33,29,32,39,50,26,39,36,32,45,37,29,35,29,38,38,30,32,25,42,32,41,38,27,38,39,35,25,32,27,32,40,26,31,41,28,35,35,35,42,35,38,33,43,37,32,33,38,48,45,32,38,33,42,34,1e+08,40,40,26,35,30,32,35,37,35,33,30
7,13,7,3,5,14,4,7,11,7,17,11,13,5,7,6,5,15,13,8,5,13,7,9,4,10,4,4,12,9,7,9,11,17,14,4,9,8,5,3,4,6,7,9,19,14,10,9,7,14,10,7,7,10,6,6,15,11,4,8,7,10,13,10,10,9,10,9,10,6,7,11,6,4,12,13,16,6,13,10,5,12,12,11,9,5,9,5,7,8,7,3,9,5,14,7,8,12,11,16,40,38,26,36,21,42,27,42,41,28,37,36,28,29,25,37,42,35,41,36,27,33,42,40,24,42,33,30,34,36,43,41,33,31,34,32,42,42,32,29,44,26,40,41,35,39,34,32,46,33,33,34,37,31,31,43,38,32,33,27,25,41,30,33,36,30,37,42,22,45,35,38,41,38,44,30,38,29,40,38,38,33,30,40,26,35,35,29,40,1e+08,35,27,29,34,35,41,32,25,42,39
9,13,9,11,11,14,10,13,11,10,16,10,14,13,7,7,2,15,11,5,9,16,11,12,14,8,14,10,9,14,13,10,10,13,9,11,8,9,9,11,12,11,11,10,12,15,11,9,9,11,11,14,14,12,14,8,12,11,12,14,12,8,10,10,12,13,13,13,10,8,7,10,11,11,12,12,14,11,12,9,11,10,12,14,12,9,15,12,8,14,11,13,11,8,11,11,14,12,10,12,33,32,29,49,30,41,35,37,39,28,36,34,20,25,22,34,31,37,42,33,30,35,39,38,23,38,28,36,29,32,38,36,34,39,35,32,32,41,40,33,36,26,49,37,30,38,28,32,41,29,37,36,28,34,34,42,34,26,30,35,31,30,30,38,29,27,33,36,24,32,34,38,48,35,32,40,44,30,39,31,40,37,37,40,33,35,35,28,40,35,1e+08,32,30,29,27,44,37,32,39,35
3,8,5,1,7,1,4,7,18,7,15,8,6,18,19,4,2,4,10,15,7,4,16,5,7,20,8,15,3,10,9,5,8,2,21,8,7,5,4,14,11,10,9,8,3,4,7,7,3,8,9,9,7,8,8,5,3,7,5,9,4,9,9,8,13,9,10,8,4,6,4,5,8,5,9,4,2,7,10,4,4,11,8,6,8,3,7,7,5,9,13,8,9,5,3,9,3,4,2,4,30,32,19,33,31,28,23,28,32,18,30,26,19,19,16,22,26,24,35,27,45,29,26,25,23,26,19,18,19,24,29,28,19,29,29,31,26,32,45,21,26,21,34,33,23,32,23,17,34,32,23,40,17,23,25,28,25,24,25,24,47,26,22,29,18,19,24,24,21,30,27,25,32,34,29,31,36,25,30,23,31,20,27,30,19,19,23,21,26,27,32,1e+08,21,23,18,30,34,28,29,27
12,18,18,12,15,12,13,11,7,15,11,12,16,15,7,16,2,10,12,4,13,7,10,13,11,7,13,9,14,12,14,12,12,10,12,12,14,16,15,13,8,16,8,13,10,15,17,11,15,11,17,12,10,15,14,12,13,13,16,15,20,6,13,13,13,17,14,15,15,18,15,14,10,13,17,13,14,13,12,15,11,15,16,14,12,14,14,8,17,9,10,11,13,14,16,16,17,15,16,5,26,33,40,38,35,33,36,32,26,46,26,37,22,37,33,46,30,38,26,28,17,30,30,30,21,29,40,37,32,33,31,30,43,26,38,40,30,32,19,49,29,34,31,27,30,30,25,40,31,28,33,18,42,45,31,28,29,44,35,52,28,36,31,33,46,38,30,37,28,32,31,32,32,35,30,38,31,37,29,33,29,36,38,29,50,33,38,46,35,29,30,21,1e+08,33,40,27,35,52,29,39
14,9,6,11,7,7,5,8,10,4,9,9,13,10,5,5,4,9,8,6,4,4,7,14,7,13,4,6,7,10,10,10,7,10,6,9,6,10,4,9,5,11,8,8,11,14,9,5,7,10,9,7,11,7,8,6,13,6,7,6,8,8,7,9,10,9,8,7,7,8,6,6,5,6,6,14,12,5,6,5,12,8,7,9,7,10,11,9,8,7,8,8,7,5,15,8,5,11,13,5,33,35,27,29,24,37,24,35,33,29,33,34,25,25,25,33,34,25,26,35,26,34,29,35,25,33,28,24,32,42,30,33,29,31,30,34,31,27,27,33,35,26,30,27,38,36,39,27,35,36,36,24,32,30,33,35,35,26,28,31,25,34,34,29,31,32,38,29,41,39,37,38,32,36,30,27,30,28,32,39,35,30,29,32,30,26,31,28,30,34,29,23,33,1e+08,27,32,38,32,31,35
11,15,8,8,7,17,3,11,8,7,15,11,13,4,5,7,5,15,16,8,7,12,7,8,3,6,2,7,15,10,9,11,8,19,16,3,7,7,5,7,2,7,5,7,17,10,12,5,8,16,13,12,5,5,16,6,22,4,4,16,7,12,15,7,7,10,5,7,10,8,8,19,4,5,16,17,15,5,7,4,8,5,19,16,16,6,10,4,9,8,10,6,8,2,17,6,7,13,17,14,29,29,37,33,26,31,35,30,28,35,24,32,26,38,35,36,32,38,33,29,19,26,33,30,23,28,40,36,35,31,35,33,35,24,25,27,37,33,18,38,32,35,33,32,27,29,30,38,30,28,29,22,44,38,29,31,27,44,37,35,15,30,29,36,47,43,31,34,24,34,32,32,31,28,31,29,33,37,29,33,33,37,31,29,33,33,36,41,32,35,27,18,40,27,1e+08,29,34,35,24,32
8,16,15,6,11,12,10,12,9,9,17,11,13,14,8,9,4,15,14,11,9,12,11,10,11,8,11,11,7,11,10,14,11,10,9,17,9,10,10,11,13,14,13,9,10,10,13,10,10,13,15,13,18,17,13,11,12,14,9,15,10,9,13,17,14,11,14,13,11,8,9,14,12,12,20,12,8,11,11,15,5,15,11,19,14,12,14,9,10,13,15,15,16,16,11,16,9,11,12,19,46,33,30,33,34,42,32,36,48,31,45,30,27,26,22,30,38,39,41,41,28,45,34,37,30,32,34,34,41,36,37,42,31,36,35,38,37,39,34,33,39,27,40,45,41,41,38,30,40,38,43,31,32,35,35,47,40,27,37,28,27,46,27,28,31,29,40,35,31,42,42,40,44,46,37,31,37,32,43,40,55,35,28,38,35,36,39,27,35,41,44,30,27,32,29,1e+08,36,33,47,35
11,6,8,11,6,11,10,8,14,11,6,18,14,8,6,9,6,11,10,4,8,8,6,13,8,14,6,12,8,13,7,11,12,16,8,7,11,17,7,16,7,15,15,12,12,16,15,6,7,14,15,11,10,13,10,9,14,10,8,9,12,18,10,14,14,10,10,10,12,8,8,10,11,8,13,12,11,11,10,11,10,12,12,15,10,15,17,15,11,9,11,8,8,13,12,11,11,9,11,5,36,34,30,40,31,41,30,36,40,30,39,35,23,26,24,28,38,33,36,38,31,39,36,38,24,37,30,33,38,43,36,41,34,36,27,30,36,35,35,37,40,29,41,35,37,38,37,30,38,42,38,39,36,31,31,37,34,27,34,33,28,37,38,35,30,24,38,34,31,37,42,35,38,49,42,37,39,31,42,45,50,30,34,35,30,26,38,28,37,32,37,34,35,38,34,36,1e+08,34,40,38
8,14,13,9,18,6,11,19,7,17,15,15,11,14,11,11,4,8,14,8,18,8,11,14,16,5,9,11,7,8,19,13,15,6,10,21,18,16,10,11,9,18,16,16,8,8,13,15,13,16,13,10,14,15,11,14,10,14,10,11,14,10,17,15,14,12,19,13,12,13,11,12,15,12,17,14,10,14,15,12,9,14,8,16,15,11,16,15,12,15,9,11,20,13,14,18,10,8,15,6,30,30,42,34,40,29,40,32,33,44,24,34,20,34,38,38,23,38,27,32,21,25,33,26,26,28,38,39,27,29,33,28,44,24,41,46,34,32,20,40,27,36,30,30,33,33,29,41,31,28,34,18,38,51,32,33,25,45,34,48,30,28,27,35,41,37,28,37,29,34,31,31,28,34,29,37,33,42,31,29,31,35,36,31,49,30,43,39,35,25,32,28,52,32,35,33,34,1e+08,32,43
12,13,8,9,10,7,7,7,10,4,18,10,9,22,6,7,3,16,10,6,7,5,8,13,7,10,10,9,5,16,9,10,19,9,8,11,11,10,8,13,9,7,8,8,11,18,14,6,8,9,15,12,12,10,11,10,16,8,11,12,5,5,9,9,20,14,15,17,18,11,6,7,7,7,11,8,9,7,16,12,13,13,16,14,8,7,16,7,9,8,9,11,10,9,13,12,9,11,13,14,42,39,29,36,26,48,31,35,52,33,38,32,29,25,21,39,44,35,40,43,32,45,38,40,27,37,33,32,38,44,40,47,31,39,30,32,35,40,38,30,41,31,44,44,39,42,37,27,39,40,41,40,33,33,33,48,41,30,35,33,29,41,37,30,31,27,46,32,29,50,40,42,39,41,36,31,40,33,46,41,46,37,31,45,31,32,33,26,33,42,39,29,29,31,24,47,40,32,1e+08,34
9,12,10,9,8,7,8,12,6,10,12,10,8,12,8,7,2,10,11,7,8,7,9,8,10,6,8,10,7,9,11,7,11,9,7,7,9,8,7,9,10,8,8,9,9,9,12,14,10,8,10,6,9,8,7,8,10,7,9,7,11,9,9,8,10,9,12,10,10,8,9,7,8,7,9,11,9,6,10,6,11,11,8,8,9,8,8,10,10,9,6,8,9,8,12,10,9,10,8,7,38,39,37,34,34,37,36,36,33,38,31,36,27,36,27,43,32,34,30,37,27,31,36,36,23,37,38,41,33,39,32,33,38,30,32,39,33,34,25,40,38,33,37,30,34,39,34,43,39,34,36,28,39,37,32,37,33,34,37,34,26,35,31,35,38,31,29,32,30,32,30,34,38,37,37,40,36,43,37,36,39,34,35,35,37,29,42,34,30,39,35,27,39,35,32,35,38,43,34,1e+08
