1e+08,35,21,26,20,25,16,45,16,11,25,36,26,20,15,26,20,25,30,6,30,25,11,20,31,21,16,25,30,11,30,16,11,35,26,21,21,31,30,16,21,20,21,15,16,25,25,21,16,25,21,21,15,20,16,10,30,16,25,15,21,30,30,31,25,16,31,26,21,16,31,21,20,11,31,26,56,21,21,21,20,15,45,26,26,21,20,11,15,16,21,26,11,20,26,21,25,31,26,20,19,20,21,24,13,22,32,21,20,22,16,21,17,24,34,17,22,31,28,19,9,17,29,16,13,16,31,20,19,21,21,23,21,14,14,20,24,25,12,28,17,26,19,20,22,14,13,26,19,17,15,12,29,23,24,17,13,32,34,17,12,28,16,18,27,27,19,21,15,24,19,16,19,13,26,19,19,17,19,21,22,35,22,15,22,24,23,19,29,14,16,11,20,12,36,15,19,20,17,17
35,1e+08,16,26,36,25,31,26,5,16,30,45,35,16,21,10,20,30,31,6,20,30,15,26,30,20,11,16,15,20,26,15,21,40,30,30,20,16,21,25,25,16,31,30,20,25,21,21,16,30,26,26,36,30,16,20,25,21,20,16,35,30,40,30,31,11,30,26,31,30,16,21,16,20,31,40,41,20,36,15,31,16,40,21,25,11,16,16,31,25,20,15,21,11,35,11,21,36,30,30,21,18,20,20,14,26,22,20,22,26,15,22,19,22,23,26,20,32,27,21,12,22,25,22,14,18,29,21,24,15,24,26,19,17,19,21,27,24,12,27,24,17,21,25,18,21,17,27,20,17,15,12,34,22,19,16,18,26,25,24,13,23,17,17,31,26,22,26,15,22,15,13,25,21,31,18,22,21,21,20,21,33,23,18,19,29,23,27,26,24,15,10,29,13,29,17,17,16,18,18
21,16,1e+08,26,35,16,15,21,20,25,20,16,20,16,25,31,16,21,21,20,20,21,35,16,16,20,41,15,25,25,25,15,20,20,21,16,20,16,25,25,25,16,20,20,15,20,20,25,25,21,15,21,25,26,21,25,20,20,20,30,21,25,25,21,25,25,20,20,35,21,30,15,20,30,16,30,20,31,15,21,16,20,25,20,35,20,20,30,36,20,21,21,30,20,21,21,30,30,25,21,20,22,26,24,28,19,24,21,23,22,22,24,13,21,16,19,18,17,23,18,21,20,20,17,13,17,18,20,22,13,20,19,19,18,29,29,20,24,28,18,16,22,25,20,16,19,13,23,26,20,20,16,16,22,20,17,19,20,18,18,20,21,17,17,16,17,15,17,16,20,18,15,21,22,18,24,22,19,27,15,20,19,18,14,21,24,18,26,19,17,25,24,18,14,14,23,16,26,19,15
26,26,26,1e+08,36,36,26,31,11,26,30,21,40,20,16,21,20,35,26,21,26,35,26,30,26,16,30,21,25,31,30,25,21,21,21,30,15,26,16,31,31,20,31,25,45,20,16,21,30,25,25,25,26,31,30,26,36,40,25,30,25,20,31,20,15,21,35,26,26,35,30,21,26,26,16,31,31,21,25,31,30,21,31,20,16,21,20,31,16,30,16,31,26,26,30,35,20,45,31,25,14,24,28,29,23,20,26,18,16,29,18,28,12,26,24,26,24,26,30,15,6,16,23,14,13,20,28,28,17,18,23,20,25,19,22,25,24,25,12,27,13,25,23,17,19,22,19,28,23,17,23,14,25,25,25,19,17,27,27,21,15,17,20,22,24,23,17,24,21,18,22,21,18,24,22,23,15,24,18,16,17,30,26,20,27,28,24,28,30,18,29,12,28,20,25,22,19,25,19,23
20,36,35,36,1e+08,36,25,21,16,30,35,25,30,36,21,25,10,26,25,21,20,30,20,25,25,26,30,26,15,20,25,15,20,36,31,25,30,36,40,25,25,30,25,35,25,20,26,30,46,26,15,31,30,41,36,20,20,15,16,31,16,15,41,30,21,26,26,26,26,36,31,26,15,26,21,25,35,35,36,25,21,20,30,20,35,20,21,15,20,30,16,26,25,21,25,30,26,30,30,36,21,21,23,32,19,24,24,25,25,32,19,26,15,19,20,27,22,30,30,22,21,25,30,18,14,18,28,29,20,23,23,23,27,23,18,25,26,25,24,25,16,24,30,29,18,27,18,32,23,21,22,20,27,25,25,19,17,25,21,27,16,18,17,18,22,20,25,23,17,21,18,20,28,24,22,25,26,22,22,20,22,25,30,22,22,23,26,26,31,23,31,19,33,22,21,20,27,28,26,21
25,25,16,36,36,1e+08,31,21,25,21,25,20,25,26,31,21,10,25,30,21,26,25,21,35,30,11,16,26,15,26,20,20,21,31,31,20,20,41,26,26,21,25,41,30,35,25,20,21,30,26,30,20,26,31,15,31,21,21,35,26,25,25,26,16,15,26,20,21,20,15,20,31,21,21,26,26,21,26,20,21,46,25,21,15,31,21,25,26,11,21,16,26,35,21,20,26,26,30,30,20,18,15,25,27,20,23,24,22,21,38,14,27,13,26,21,21,17,22,17,17,16,12,24,18,13,21,24,31,22,20,24,24,30,16,17,18,22,25,13,27,20,21,20,21,20,19,16,27,17,16,24,16,23,25,15,18,15,30,15,28,18,15,16,21,31,22,17,28,15,18,14,20,19,23,22,25,22,22,21,17,21,24,23,21,26,22,27,26,24,24,20,20,23,18,29,15,24,25,17,24
16,31,15,26,25,31,1e+08,26,20,26,20,16,26,20,26,26,20,25,16,21,36,20,26,31,31,20,26,21,30,21,26,30,21,26,16,36,25,20,35,20,20,25,30,25,21,25,25,30,21,26,31,20,26,21,30,35,30,30,25,35,20,15,25,25,15,21,25,25,25,26,26,26,11,35,20,30,21,25,20,21,41,30,15,16,21,20,16,21,31,31,20,20,25,21,16,25,35,35,26,20,20,19,29,23,23,22,24,22,23,28,22,22,19,21,15,26,18,27,26,19,16,21,17,18,15,18,22,23,20,20,22,19,25,21,24,21,18,26,19,27,18,21,20,26,13,23,16,30,21,18,24,13,20,24,25,18,17,24,21,31,23,16,20,26,22,25,21,28,14,20,21,21,27,28,19,27,26,25,22,18,21,23,24,23,28,20,25,23,25,24,21,22,32,18,21,22,22,28,25,20
45,26,21,31,21,21,26,1e+08,15,20,20,40,31,20,16,25,35,25,31,15,35,25,16,21,40,10,11,30,25,25,20,20,11,35,26,20,25,26,25,10,20,25,16,30,25,41,20,25,21,21,26,35,15,15,26,26,26,16,40,21,30,10,30,16,20,21,26,21,20,25,16,25,21,15,26,20,30,25,20,21,36,15,30,21,26,16,15,20,46,41,20,15,20,15,26,36,41,31,31,20,14,21,26,19,18,18,31,20,16,35,15,18,15,30,24,25,18,24,22,14,16,16,28,19,14,16,34,29,18,21,20,17,27,16,25,23,22,21,8,26,15,35,17,15,16,15,20,31,19,14,18,12,27,27,16,16,17,37,29,27,17,17,19,23,24,23,17,24,15,18,20,17,15,14,15,25,16,23,15,19,19,27,24,16,33,20,28,32,26,18,20,15,29,15,30,20,21,27,16,20
16,5,20,11,16,25,20,15,1e+08,15,35,16,10,35,25,20,15,31,5,35,26,10,15,15,11,30,20,10,20,40,15,26,30,20,30,26,21,16,20,21,30,35,30,15,10,30,41,10,25,26,26,26,15,25,36,15,20,20,11,16,21,25,20,20,20,26,21,25,41,26,20,20,15,21,40,30,20,21,31,25,10,35,21,36,20,20,16,20,10,15,36,20,31,31,11,21,21,10,20,20,27,21,13,22,18,24,11,18,28,14,26,17,19,8,9,12,33,15,20,19,29,24,19,22,16,22,10,11,17,24,21,25,11,28,17,17,20,16,23,13,21,15,23,19,18,22,22,12,27,23,24,33,9,14,15,29,26,12,15,13,27,23,17,23,11,9,21,15,17,19,21,21,23,23,22,21,31,12,24,20,25,10,13,27,14,14,20,12,16,25,23,27,9,17,11,28,20,14,26,20
11,16,25,26,30,21,26,20,15,1e+08,11,11,25,20,25,25,26,11,21,31,35,25,30,21,31,15,20,20,26,26,16,31,25,26,11,25,20,20,25,20,20,20,15,30,16,20,25,20,20,30,20,25,20,25,15,25,20,25,10,20,35,11,30,20,20,25,15,16,20,20,21,26,30,30,21,25,30,20,25,25,15,25,20,20,30,25,20,20,21,30,20,20,20,31,21,20,30,16,25,20,20,19,25,26,34,15,27,23,24,25,16,25,17,26,21,24,15,27,23,16,16,16,18,16,15,18,18,23,14,13,18,17,19,18,26,21,20,18,18,21,19,26,20,17,18,27,17,26,23,20,20,13,20,23,21,20,21,17,22,29,18,20,16,23,19,23,17,21,13,17,19,19,18,21,15,23,21,21,19,12,22,19,26,22,27,21,22,26,20,16,24,17,31,18,20,18,20,25,16,21
25,30,20,30,35,25,20,20,35,11,1e+08,35,25,21,20,20,15,31,20,20,25,25,20,25,35,20,25,16,20,40,25,25,31,25,30,31,30,20,25,20,20,30,20,35,31,30,26,20,40,21,35,36,21,21,30,20,30,20,31,35,31,20,30,25,16,25,30,30,30,36,30,25,15,15,35,25,25,25,35,25,30,30,30,35,31,10,36,20,15,21,30,16,31,31,25,41,26,20,30,25,32,27,20,28,10,37,22,26,22,24,24,28,20,14,16,25,30,25,26,18,16,22,28,26,13,22,24,27,23,19,28,28,25,25,19,14,23,21,17,20,25,20,26,23,21,27,17,30,27,19,24,28,23,22,23,24,27,15,17,20,21,25,20,23,21,18,19,23,19,26,19,16,23,22,33,22,27,19,23,27,27,27,29,29,21,22,29,25,23,28,25,18,18,23,23,23,24,19,25,26
36,45,16,21,25,20,16,40,16,11,35,1e+08,36,15,25,16,20,20,20,6,20,15,21,36,26,21,11,30,16,26,26,15,31,26,40,21,30,31,20,26,25,20,25,35,21,30,26,26,11,31,26,31,41,16,21,15,25,16,30,25,16,35,25,25,26,16,30,30,21,30,16,16,11,21,35,31,26,25,31,10,15,15,35,16,21,21,31,21,30,26,16,20,31,15,26,15,25,35,26,30,20,22,23,20,13,21,20,17,17,24,15,19,22,27,17,25,18,29,24,20,9,21,26,16,13,18,34,16,22,19,25,24,23,14,19,22,19,21,9,25,19,22,19,21,21,17,18,29,18,18,17,12,39,27,23,19,15,31,27,17,17,22,14,17,36,18,26,24,15,23,18,13,22,16,23,21,19,20,15,28,23,36,24,17,22,27,21,28,27,27,14,11,28,14,26,20,18,21,17,19
26,35,20,40,30,25,26,31,10,25,25,36,1e+08,25,26,26,25,20,25,21,35,25,25,31,26,25,26,21,10,26,26,20,25,40,50,31,30,30,30,31,35,25,40,40,40,25,25,35,26,51,25,25,36,31,30,35,40,30,20,20,30,20,35,25,16,21,35,35,25,26,31,30,35,30,25,35,45,35,25,30,31,20,20,21,31,35,26,30,21,26,25,26,25,26,36,30,25,25,35,30,24,16,21,26,22,23,24,27,25,20,22,25,20,23,20,27,22,28,34,22,14,22,30,23,13,22,22,26,25,22,24,22,24,21,21,19,28,28,20,28,20,29,26,23,22,23,18,22,23,21,28,14,29,21,29,23,23,27,32,25,21,25,15,19,28,25,26,28,17,24,22,19,27,26,26,26,31,23,18,20,25,33,27,22,32,28,24,25,36,23,29,17,27,15,22,28,22,29,22,18
20,16,16,20,36,26,20,20,35,20,21,15,25,1e+08,21,25,10,25,11,40,21,15,16,20,25,45,20,20,5,35,20,20,20,35,40,46,31,26,30,21,26,25,31,15,15,30,41,25,15,26,35,36,26,41,26,20,15,35,16,35,16,15,30,25,36,30,30,40,30,26,35,30,11,26,30,21,25,36,41,35,15,20,21,35,15,30,25,16,15,15,30,26,31,46,21,40,31,20,30,25,29,24,15,22,15,28,15,25,29,13,26,19,14,14,19,17,21,20,28,26,25,26,25,26,16,22,12,18,29,28,31,26,13,29,17,15,23,23,24,16,27,23,26,26,23,23,24,11,20,24,28,36,22,13,20,28,26,16,16,17,26,20,23,23,15,16,30,20,15,23,27,19,35,31,24,18,31,17,28,19,30,19,16,26,18,23,28,12,19,22,30,25,19,20,11,23,23,20,34,18
15,21,25,16,21,31,26,16,25,25,20,25,26,21,1e+08,25,25,20,21,35,15,20,41,16,25,25,36,25,20,20,35,26,16,15,25,21,31,16,25,20,25,16,20,21,11,16,30,20,21,16,16,21,20,16,21,20,26,16,25,25,15,25,11,11,20,30,26,20,16,26,25,26,15,36,16,15,15,26,30,15,31,20,21,16,15,15,16,25,26,21,16,21,16,20,16,21,25,16,16,20,19,15,18,22,27,18,22,19,15,13,18,18,17,18,23,20,18,12,16,14,27,21,17,21,13,19,18,12,17,20,22,16,13,18,20,21,22,18,28,17,17,17,28,20,15,21,18,13,17,17,15,23,12,13,17,21,14,21,15,14,23,16,17,30,17,23,15,14,15,19,20,17,26,24,21,27,27,21,16,15,17,10,15,21,18,17,16,19,16,19,30,27,16,12,19,17,20,16,18,21
26,10,31,21,25,21,26,25,20,25,20,16,26,25,25,1e+08,15,20,10,26,20,15,35,16,21,35,40,20,10,31,26,10,20,26,21,31,26,21,45,30,25,20,25,20,26,30,15,30,25,30,16,21,21,35,21,25,35,30,15,20,25,20,30,20,20,31,30,31,25,26,21,31,35,25,21,20,25,30,20,36,20,25,25,10,41,40,20,30,20,35,30,35,25,26,21,25,25,20,20,15,19,20,18,29,27,17,21,24,28,17,26,25,13,20,18,23,15,25,27,20,31,23,26,21,16,19,19,25,18,21,23,20,15,18,22,22,20,30,36,25,19,21,31,15,21,22,13,22,25,16,21,20,20,17,24,22,18,18,25,17,27,17,11,26,19,23,20,26,20,21,16,21,26,20,21,26,27,26,23,19,25,22,29,24,22,24,23,16,25,19,26,36,19,16,15,26,23,21,17,23
20,20,16,20,10,10,20,35,15,26,15,20,25,10,25,15,1e+08,15,20,10,20,15,20,20,20,15,6,30,30,15,20,40,25,20,30,15,20,25,10,15,15,25,15,25,15,25,20,10,5,25,10,10,15,15,20,25,25,10,20,15,20,25,10,20,10,15,20,10,15,10,20,15,20,30,20,20,25,5,10,15,25,15,15,25,15,10,15,20,20,16,20,25,15,15,25,20,25,16,15,30,12,17,23,12,24,22,26,14,15,22,12,16,26,32,18,23,22,17,17,20,13,17,19,14,7,15,27,19,18,26,18,15,18,10,15,23,25,15,10,19,17,32,13,19,18,16,18,20,15,18,20,11,18,23,17,19,17,26,25,19,8,24,23,17,27,22,24,17,13,17,15,15,14,12,21,13,18,20,13,21,15,17,13,16,22,15,18,26,15,17,11,9,17,15,28,11,18,19,21,21
25,30,21,35,26,25,25,25,31,11,31,20,20,25,20,20,15,1e+08,21,20,30,20,11,20,35,20,21,21,15,30,30,20,30,30,20,25,25,20,20,21,25,35,20,15,25,30,25,25,20,20,35,35,35,30,30,20,21,40,16,30,15,15,25,26,20,30,21,30,31,30,25,35,20,20,35,20,20,25,31,25,20,40,25,30,30,25,36,20,21,30,35,20,26,21,15,20,25,25,35,25,24,22,16,26,14,29,24,22,22,24,20,25,18,23,22,20,30,23,22,18,17,25,25,22,19,26,27,27,29,21,20,31,22,21,17,20,18,21,17,24,23,21,23,21,20,22,25,25,19,23,24,26,21,23,17,26,23,19,24,22,23,25,26,25,20,22,27,21,16,32,19,25,25,21,25,27,24,18,30,23,28,24,23,27,26,18,32,25,25,25,28,16,21,18,16,23,22,17,28,21
30,31,21,26,25,30,16,31,5,21,20,20,25,11,21,10,20,21,1e+08,10,11,30,16,25,35,20,16,26,15,15,25,15,26,25,25,21,20,16,16,25,21,21,31,10,20,16,25,16,21,36,21,11,26,21,21,16,31,26,15,31,30,25,31,26,16,11,31,26,25,21,21,35,26,20,31,25,30,25,15,16,31,25,35,16,26,15,16,20,31,20,20,26,21,15,36,16,26,21,21,35,19,17,20,19,18,20,23,19,17,23,13,19,20,27,24,19,20,22,21,18,9,16,27,18,10,17,27,25,26,22,23,27,26,15,17,20,29,18,9,24,22,23,20,22,16,18,17,25,20,16,14,10,28,20,16,20,17,28,26,23,13,23,20,16,31,21,17,27,15,18,18,20,21,19,31,15,19,20,21,24,19,19,18,14,19,27,21,26,25,24,16,11,24,15,29,21,15,21,16,19
6,6,20,21,21,21,21,15,35,31,20,6,21,40,35,26,10,20,10,1e+08,26,15,15,11,16,25,40,15,10,31,21,15,20,26,25,30,25,20,20,15,25,25,15,20,15,20,31,20,35,21,30,30,21,30,30,25,16,25,11,25,31,10,21,6,16,36,25,21,16,25,31,25,25,21,30,11,21,25,26,25,15,20,20,21,25,21,30,25,25,25,20,20,25,36,21,21,26,10,21,10,21,16,20,27,22,24,17,23,24,20,21,21,12,18,11,18,24,18,19,22,26,19,21,26,11,18,14,21,19,20,26,21,12,23,19,17,19,19,25,19,22,14,26,18,19,28,15,14,26,19,25,35,11,12,21,26,19,16,19,19,31,15,18,28,14,14,19,19,14,18,19,17,27,23,19,27,28,20,23,18,25,15,21,33,24,15,20,14,19,21,28,24,22,17,13,22,24,17,27,19
30,20,20,26,20,26,36,35,26,35,25,20,35,21,15,20,20,30,11,26,1e+08,20,15,15,30,16,36,25,20,31,26,20,21,25,20,26,21,35,30,20,25,25,20,30,25,20,26,25,25,30,26,21,36,36,20,20,30,31,20,21,30,10,31,15,16,21,21,26,20,30,31,25,30,31,26,25,35,25,26,25,25,21,20,21,35,20,36,20,25,30,26,25,26,31,21,26,31,25,40,15,19,24,26,29,27,26,28,21,20,30,16,23,16,29,20,30,19,29,33,16,13,17,21,18,16,20,23,26,14,16,21,16,28,18,25,20,19,30,22,23,26,21,24,22,15,24,22,24,23,15,24,11,24,27,25,24,18,19,31,28,21,19,14,21,20,21,14,26,12,14,19,23,24,21,19,20,25,27,21,21,23,28,28,26,24,25,22,25,26,22,27,18,25,19,20,21,18,25,22,21
25,30,21,35,30,25,20,25,10,25,25,15,25,15,20,15,15,20,30,15,20,1e+08,15,20,20,10,16,45,25,15,20,15,16,25,25,15,25,20,20,20,15,15,15,36,30,10,15,10,20,10,15,15,15,25,15,20,35,25,15,15,25,25,15,20,10,15,20,10,15,20,15,15,20,20,15,25,30,30,15,15,30,10,25,10,15,10,20,20,15,30,5,15,15,10,30,15,15,10,25,20,16,11,31,21,21,18,23,16,12,19,11,21,19,27,32,20,16,16,16,15,11,11,18,16,12,16,24,26,20,19,16,19,22,16,15,17,22,16,9,19,15,26,13,14,16,20,11,36,17,15,19,9,20,15,21,14,14,24,24,20,13,15,23,22,22,27,12,20,14,17,20,18,16,18,16,15,13,21,17,17,14,22,23,15,27,19,20,31,23,15,18,11,27,22,27,12,21,21,13,18
11,15,35,26,20,21,26,16,15,30,20,21,25,16,41,35,20,11,16,15,15,15,1e+08,10,16,25,31,25,25,30,21,31,21,20,25,36,21,26,25,30,20,21,20,20,21,21,20,30,21,25,11,21,35,41,11,30,30,31,11,21,26,10,25,26,16,30,25,35,25,25,16,21,25,45,11,25,20,35,20,26,25,30,30,16,30,25,25,35,16,25,20,26,21,15,20,21,25,30,16,20,18,21,19,23,32,21,22,16,23,20,25,22,19,23,18,21,23,20,24,16,20,25,18,18,15,26,18,22,17,22,24,24,19,21,20,25,27,27,35,21,18,26,28,21,20,19,17,20,28,15,23,13,14,16,24,18,16,18,24,18,19,20,23,27,21,20,24,16,24,19,20,22,29,29,19,21,23,18,28,19,19,22,24,23,20,20,17,22,24,19,28,29,24,23,19,24,26,22,21,21
20,26,16,30,25,35,31,21,15,21,25,36,31,20,16,16,20,20,25,11,15,20,10,1e+08,21,21,11,31,25,16,41,15,26,36,30,35,30,36,31,16,20,25,25,36,20,20,30,25,26,21,36,35,26,16,25,26,21,26,30,36,26,25,26,30,26,16,20,21,35,20,31,30,21,21,30,16,36,30,30,16,36,30,30,20,16,26,26,21,31,21,21,21,21,31,31,26,20,45,26,25,18,21,21,27,13,27,29,22,19,30,16,24,14,27,26,26,16,25,21,18,9,18,23,16,15,17,28,21,24,18,25,25,26,13,12,23,25,23,10,31,17,21,20,23,20,15,18,32,19,16,23,10,33,29,18,19,22,27,28,30,9,20,16,18,31,27,29,26,14,25,17,16,18,24,24,18,18,16,21,21,22,33,21,19,32,25,24,29,22,25,17,9,29,20,27,21,21,24,20,19
31,30,16,26,25,30,31,40,11,31,35,26,26,25,25,21,20,35,35,16,30,20,16,21,1e+08,20,26,50,15,21,30,30,25,30,25,35,25,21,30,21,16,25,21,20,25,20,25,25,26,20,26,30,15,25,30,15,20,20,45,20,21,25,30,25,15,30,31,20,16,20,35,31,25,26,25,31,21,25,21,25,35,25,25,26,35,26,25,16,25,31,21,15,25,25,21,20,35,20,41,15,22,22,29,27,21,20,36,21,21,26,13,23,18,25,28,29,18,25,20,14,12,17,21,20,16,16,27,29,21,22,27,17,21,15,25,17,21,23,11,30,21,28,22,16,24,17,19,33,18,12,20,10,25,28,21,23,21,26,21,28,13,20,18,24,18,25,22,26,11,19,19,18,25,18,17,22,20,18,20,24,19,24,30,23,32,28,27,23,23,19,23,12,26,17,27,15,19,27,19,20
21,20,20,16,26,11,20,10,30,15,20,21,25,45,25,35,15,20,20,25,16,10,25,21,20,1e+08,15,15,15,50,35,21,45,25,26,35,21,21,30,30,36,36,25,20,10,26,41,30,15,26,30,45,30,21,20,20,21,35,16,30,21,15,15,35,31,30,21,45,35,30,40,31,25,36,31,21,35,30,40,25,15,30,36,35,30,25,25,25,15,20,30,36,26,31,21,20,26,15,15,25,28,27,11,30,21,24,20,23,32,12,26,26,16,16,13,15,28,18,28,20,34,29,23,24,17,23,15,9,20,21,23,29,10,31,21,20,23,25,27,17,26,13,25,21,23,22,22,13,21,26,16,35,20,15,14,32,27,12,22,13,20,26,18,30,17,14,29,21,14,30,23,18,31,25,24,29,33,16,29,22,34,18,16,28,16,26,26,16,20,26,28,29,15,13,19,29,26,13,32,20
16,11,41,30,30,16,26,11,20,20,25,11,26,20,36,40,6,21,16,40,36,16,31,11,26,15,1e+08,16,10,35,36,16,30,20,15,30,31,21,25,20,15,15,20,30,15,25,25,25,35,25,26,25,20,30,21,25,25,25,20,25,21,11,25,25,20,31,25,25,15,21,21,21,20,30,16,26,20,31,25,30,20,25,16,20,30,25,25,25,26,40,20,25,30,20,20,25,30,15,26,6,19,21,21,33,26,19,21,22,19,24,21,23,14,15,15,19,16,22,23,25,28,21,16,16,14,12,13,24,11,14,20,16,20,17,27,19,17,21,30,19,17,13,28,19,18,24,16,20,20,16,20,15,11,21,26,19,15,15,24,22,31,15,11,17,13,11,13,24,14,17,16,18,19,22,14,23,19,25,19,15,22,20,30,19,22,25,19,14,20,12,27,26,22,18,7,20,19,22,19,19
25,16,15,21,26,26,21,30,10,20,16,30,21,20,25,20,30,21,26,15,25,45,25,31,50,15,16,1e+08,20,16,41,30,21,30,20,15,25,31,30,16,16,30,16,35,16,26,31,26,16,21,21,10,11,21,11,21,30,15,30,26,10,40,21,20,15,15,20,11,11,11,31,36,11,26,21,25,21,16,11,11,36,21,10,25,26,15,31,21,15,21,15,10,25,10,25,21,25,25,25,26,13,12,25,21,17,21,25,17,18,24,17,17,19,26,28,25,25,26,18,13,10,16,23,19,12,19,29,21,19,19,20,14,21,14,20,25,26,16,11,25,14,28,18,21,17,16,15,30,13,13,13,13,24,29,16,13,16,34,23,29,16,18,20,20,24,25,17,17,14,22,15,16,12,13,16,19,16,18,14,11,14,26,18,20,30,20,20,28,17,15,13,14,26,18,32,13,14,30,17,18
30,15,25,25,15,15,30,25,20,26,20,16,10,5,20,10,30,15,15,10,20,25,25,25,15,15,10,20,1e+08,10,25,25,15,15,20,20,15,21,25,11,5,25,15,26,15,20,15,10,10,15,10,25,20,15,11,15,15,10,11,30,20,30,15,10,5,10,10,15,15,20,15,20,15,15,25,30,25,10,10,10,15,25,20,25,25,10,25,10,25,11,15,10,15,15,25,10,30,25,25,20,15,18,20,10,13,19,24,14,17,15,14,20,23,24,21,17,26,15,9,11,10,15,17,11,9,15,27,11,15,18,17,17,18,14,14,15,18,11,7,12,9,30,9,15,12,16,16,30,14,15,15,8,15,25,16,9,13,22,22,17,9,23,22,12,18,32,15,16,15,17,15,15,10,10,21,11,11,15,14,16,11,16,13,16,14,19,12,24,10,16,11,10,15,15,20,13,12,14,13,17
11,20,25,31,20,26,21,25,40,26,40,26,26,35,20,31,15,30,15,31,31,15,30,16,21,50,35,16,10,1e+08,21,35,35,26,16,35,21,26,25,21,26,35,30,26,25,30,25,21,25,35,40,35,21,35,20,20,36,40,21,25,26,15,25,30,15,35,30,41,35,26,35,35,20,35,40,31,30,26,30,20,20,30,16,40,30,21,30,30,25,31,30,35,26,41,31,45,35,20,26,25,28,27,19,31,15,30,25,21,33,23,23,23,22,18,11,19,30,31,28,17,25,30,23,23,16,22,19,26,24,22,20,32,17,29,26,21,23,23,28,22,26,19,35,24,22,26,20,16,27,23,22,31,18,18,20,31,31,13,26,17,23,30,20,29,15,16,33,27,19,28,24,20,33,28,22,23,32,20,26,23,34,23,32,30,22,24,23,17,27,29,28,29,19,16,19,29,27,19,35,26
30,26,25,30,25,20,26,20,15,16,25,26,26,20,35,26,20,30,25,21,26,20,21,41,30,35,36,41,25,21,1e+08,25,31,31,30,31,30,41,35,21,26,25,20,31,30,10,25,26,30,26,26,25,26,26,20,25,30,25,20,30,21,25,26,25,15,31,25,36,35,30,51,45,26,35,25,16,35,40,31,31,30,25,30,20,31,15,31,35,16,31,30,26,21,25,21,25,20,30,26,20,22,23,24,32,18,26,28,22,28,25,22,27,14,17,21,26,18,28,28,23,16,23,32,22,14,22,32,29,18,20,26,25,24,19,22,25,29,27,21,21,19,18,27,25,22,23,21,29,22,12,20,15,26,20,21,27,16,21,27,25,16,21,17,24,23,26,24,36,17,21,19,20,22,23,25,24,29,23,21,25,24,34,29,22,23,31,30,28,28,27,31,18,17,19,28,24,26,23,27,22
16,15,15,25,15,20,30,20,26,31,25,15,20,20,26,10,40,20,15,15,20,15,31,15,30,21,16,30,25,35,25,1e+08,25,15,15,25,20,15,15,16,16,26,16,20,15,20,20,20,11,20,25,25,21,21,25,20,26,21,20,30,15,25,25,26,16,25,25,20,25,15,10,25,21,20,25,15,15,15,15,26,20,26,10,35,20,5,20,20,30,20,36,21,21,16,15,30,20,21,25,31,23,25,22,9,16,23,21,17,20,23,19,18,18,17,20,20,22,18,17,19,13,24,15,20,17,15,15,18,20,21,23,22,19,18,19,21,22,17,12,20,21,19,16,17,21,17,23,25,24,18,25,16,14,25,14,23,26,18,19,17,12,29,22,20,18,24,28,23,20,19,20,19,14,18,17,16,15,12,21,25,17,17,17,27,18,12,25,21,10,19,17,12,15,19,21,24,12,24,20,18
11,21,20,21,20,21,21,11,30,25,31,31,25,20,16,20,25,30,26,20,21,16,21,26,25,45,30,21,15,35,31,25,1e+08,25,16,20,25,26,20,25,20,55,30,26,26,35,35,25,20,35,35,30,45,25,30,20,35,40,30,51,25,25,25,45,25,25,30,35,50,46,30,26,25,20,35,21,21,26,30,30,16,40,25,35,31,30,40,35,21,26,30,35,60,31,21,40,20,35,31,20,28,30,19,22,20,34,22,20,34,25,23,29,19,14,9,17,30,28,27,25,18,26,23,22,16,24,22,26,19,25,24,32,23,23,28,26,19,23,18,23,31,14,25,26,27,22,23,24,25,24,26,24,21,25,21,32,27,22,25,21,17,34,20,18,25,16,28,26,19,28,20,18,24,26,31,22,24,16,30,29,36,28,22,30,26,22,29,22,23,26,28,16,22,20,17,36,27,22,25,20
35,40,20,21,36,31,26,35,20,26,25,26,40,35,15,26,20,30,25,26,25,25,20,36,30,25,20,30,15,26,31,15,25,1e+08,31,25,25,35,21,25,26,26,25,30,25,25,30,35,21,35,40,20,25,36,25,30,35,25,15,35,20,10,46,30,35,21,20,36,35,30,31,21,31,25,26,31,60,35,31,31,26,15,40,25,26,40,26,25,15,31,20,26,30,20,41,40,25,30,41,30,19,22,22,31,22,20,26,27,30,27,24,29,16,16,21,23,18,34,37,21,24,22,29,21,12,20,27,27,25,24,22,19,19,17,21,20,38,28,23,28,23,24,30,22,20,19,16,20,22,22,24,16,28,23,27,27,19,23,26,25,20,19,18,20,24,22,26,25,16,24,27,21,28,24,23,21,34,20,16,20,23,32,27,18,23,26,22,22,32,27,28,17,22,17,29,25,23,19,27,14
26,30,21,21,31,31,16,26,30,11,30,40,50,40,25,21,30,20,25,25,20,25,25,30,25,26,15,20,20,16,30,15,16,31,1e+08,35,25,26,16,36,30,31,35,25,20,30,35,21,30,36,25,35,31,26,35,21,31,20,16,30,26,15,41,26,40,20,26,16,26,35,30,36,21,21,46,26,36,31,26,26,20,26,30,21,36,26,26,21,16,11,30,21,21,30,30,26,25,20,21,35,20,23,17,27,16,21,15,27,24,17,23,22,21,20,18,22,30,24,34,23,23,23,34,23,12,31,29,17,21,33,29,25,20,21,19,18,32,22,22,19,18,22,29,24,25,26,19,18,25,24,24,28,23,19,23,26,21,20,24,19,16,23,20,27,30,22,24,24,21,29,20,21,30,23,35,27,31,16,24,20,19,25,20,21,22,23,23,22,25,28,24,24,20,20,22,20,29,21,25,19
21,30,16,30,25,20,36,20,26,25,31,21,31,46,21,31,15,25,21,30,26,15,36,35,35,35,30,15,20,35,31,25,20,25,35,1e+08,26,25,25,25,30,40,25,15,25,25,36,35,25,31,30,36,26,41,31,15,25,25,21,30,26,10,35,25,46,25,40,35,21,31,35,36,25,35,30,30,25,46,40,30,25,35,31,40,30,30,45,20,25,20,25,31,30,41,25,26,26,35,36,30,27,28,20,30,16,30,26,22,29,19,23,25,16,19,15,20,26,30,35,22,22,29,25,23,14,24,18,20,27,26,28,26,18,35,27,22,24,36,32,19,22,22,33,28,21,25,20,22,26,19,23,26,21,20,21,27,24,19,27,21,22,20,23,30,20,17,27,23,16,28,25,19,33,26,24,23,27,16,27,20,23,26,25,31,22,28,26,16,27,22,31,25,19,20,17,26,24,25,36,22
21,20,20,15,30,20,25,25,21,20,30,30,30,31,31,26,20,25,20,25,21,25,21,30,25,21,31,25,15,21,30,20,25,25,25,26,1e+08,20,25,15,25,20,21,30,15,20,25,20,26,26,25,31,20,26,26,25,20,25,31,30,11,30,20,25,20,25,25,20,20,26,30,21,15,25,35,21,20,26,30,26,20,16,21,26,25,35,21,20,26,30,31,21,15,20,20,21,35,20,25,20,20,22,16,23,16,25,23,23,20,18,21,21,25,18,18,24,25,25,31,20,22,26,28,27,14,22,16,19,19,23,32,22,17,23,16,15,18,25,23,23,25,21,29,30,21,27,17,30,33,20,23,21,18,18,21,21,23,15,22,20,22,19,15,18,25,21,23,25,17,24,17,14,31,25,27,23,27,21,26,15,22,20,29,26,20,26,25,20,23,18,26,21,25,19,17,18,23,20,24,24
31,16,16,26,36,41,20,26,16,20,20,31,30,26,16,21,25,20,16,20,35,20,26,36,21,21,21,31,21,26,41,15,26,35,26,25,20,1e+08,30,26,15,30,20,31,35,26,26,31,35,25,30,25,30,30,25,30,26,31,25,30,25,25,25,15,20,26,20,21,25,25,31,30,31,31,20,31,45,36,26,26,25,25,16,20,26,25,25,31,20,30,30,21,35,36,31,35,40,30,36,20,20,21,18,34,21,26,31,22,27,27,22,26,20,23,19,25,21,29,30,27,15,16,27,17,14,22,32,29,18,24,23,22,34,20,24,26,26,26,16,28,17,24,27,27,25,23,17,26,18,23,23,14,22,29,23,21,20,25,30,30,19,18,20,18,27,27,20,32,21,21,26,21,24,20,26,26,28,24,24,19,23,29,28,25,25,27,26,26,23,19,30,20,23,18,24,23,24,28,23,25
30,21,25,16,40,26,35,25,20,25,25,20,30,30,25,45,10,20,16,20,30,20,25,31,30,30,25,30,25,25,35,15,20,21,16,25,25,30,1e+08,21,20,30,31,30,20,20,30,31,25,30,15,20,21,35,20,31,30,25,25,20,20,20,35,30,20,26,20,36,20,25,31,21,16,20,25,16,30,30,25,21,30,25,30,25,35,26,20,16,10,25,25,35,25,20,25,20,35,30,25,15,19,17,26,24,23,19,23,23,23,21,20,23,17,23,19,21,22,26,29,17,24,20,25,16,16,18,25,21,15,17,23,19,22,20,22,19,20,27,20,26,16,19,22,18,19,19,19,25,22,17,20,13,20,21,26,21,18,16,28,22,25,16,19,20,18,19,20,21,14,19,20,21,22,21,16,22,25,21,15,18,21,23,23,22,19,25,22,21,24,19,21,23,20,20,25,19,21,17,17,18
16,25,25,31,25,26,20,10,21,20,20,26,31,21,20,30,15,21,25,15,20,20,30,16,21,30,20,16,11,21,21,16,25,25,36,25,15,26,21,1e+08,36,31,51,16,30,21,25,31,20,30,25,21,50,31,26,26,31,26,20,20,21,25,25,21,20,25,30,35,26,35,26,30,50,25,16,31,25,30,30,26,30,31,25,20,30,45,30,50,15,20,26,36,41,30,21,31,25,20,20,31,23,19,16,26,24,25,17,22,25,19,26,25,16,17,15,20,22,26,29,27,19,20,24,25,14,25,19,23,29,21,25,27,15,18,24,16,28,27,21,23,27,18,26,20,27,26,17,17,25,27,24,19,21,17,23,28,21,20,31,20,21,21,20,21,26,15,22,24,22,25,29,23,25,29,28,19,24,19,21,30,29,19,24,24,21,29,28,15,28,29,26,22,20,21,21,30,34,21,21,24
21,25,25,31,25,21,20,20,30,20,20,25,35,26,25,25,15,25,21,25,25,15,20,20,16,36,15,16,5,26,26,16,20,26,30,30,25,15,20,36,1e+08,26,41,20,15,26,20,31,30,25,25,35,35,36,30,30,41,46,16,30,15,16,40,36,16,30,26,26,31,35,25,35,31,36,25,25,40,30,31,30,20,21,30,20,35,30,16,20,16,20,36,46,35,20,35,30,20,35,25,26,22,22,20,28,26,27,24,21,31,23,28,26,17,16,17,18,25,24,30,22,25,25,26,23,15,21,20,15,35,23,23,26,15,23,24,20,22,27,25,17,26,15,30,25,21,26,19,22,23,32,28,29,21,14,20,28,24,20,25,13,21,27,17,24,21,15,30,22,16,26,25,24,28,36,28,23,26,16,26,20,25,28,19,26,18,26,21,17,22,27,33,31,16,17,21,36,26,19,26,19
20,16,16,20,30,25,25,25,35,20,30,20,25,25,16,20,25,35,21,25,25,15,21,25,25,36,15,30,25,35,25,26,55,26,31,40,20,30,30,31,26,1e+08,36,15,25,41,40,25,20,40,45,30,35,46,40,35,35,30,15,55,25,20,25,35,30,25,35,35,45,25,35,31,25,25,45,20,25,20,25,36,36,50,30,45,35,30,45,25,16,25,36,46,61,21,20,45,30,25,25,31,32,24,21,21,20,32,23,23,33,22,28,22,18,16,17,18,29,25,28,21,19,31,23,26,18,23,24,25,25,31,25,29,17,26,20,23,28,23,20,31,27,21,24,30,27,22,29,21,27,25,36,23,22,21,23,30,28,21,23,25,17,31,23,16,26,20,36,25,22,32,28,29,26,30,29,21,27,21,27,30,33,24,22,33,24,30,28,17,25,26,22,11,25,22,20,32,26,21,34,22
21,31,20,31,25,41,30,16,30,15,20,25,40,31,20,25,15,20,31,15,20,15,20,25,21,25,20,16,15,30,20,16,30,25,35,25,21,20,31,51,41,36,1e+08,21,25,25,25,30,16,40,26,26,45,31,30,45,36,41,15,30,16,30,45,31,20,25,25,40,30,35,20,31,35,25,26,30,25,30,25,25,30,36,30,30,30,45,15,40,11,20,31,36,36,25,25,35,30,30,26,46,27,24,15,24,22,26,18,22,25,18,26,26,17,17,14,19,25,30,28,20,19,28,25,21,15,18,22,20,32,27,29,26,20,20,24,12,29,32,20,23,29,16,24,26,21,19,23,23,25,27,29,17,28,14,23,27,20,21,30,19,16,26,18,21,31,18,30,27,20,28,30,31,30,34,30,21,26,17,27,31,28,25,21,22,16,34,31,21,33,29,25,20,22,20,25,34,32,23,29,24
15,30,20,25,35,30,25,30,15,30,35,35,40,15,21,20,25,15,10,20,30,36,20,36,20,20,30,35,26,26,31,20,26,30,25,15,30,31,30,16,20,15,21,1e+08,30,25,15,20,30,20,26,25,25,20,25,25,30,30,30,20,25,20,26,25,25,30,15,35,20,20,26,15,26,20,25,25,30,30,35,30,21,20,20,20,35,16,15,26,25,30,30,25,35,25,26,25,30,25,35,20,19,16,18,25,25,24,26,21,22,25,14,23,20,25,15,26,19,24,18,20,14,17,25,17,11,19,30,26,18,21,18,17,25,18,22,23,23,22,15,26,20,26,21,16,26,23,19,35,17,22,25,13,28,23,24,22,18,17,28,24,19,19,21,20,20,21,23,31,16,18,24,19,22,23,18,22,23,23,16,24,22,26,29,20,23,21,25,31,20,18,22,14,23,20,20,17,26,22,22,28
16,20,15,45,25,35,21,25,10,16,31,21,40,15,11,26,15,25,20,15,25,30,21,20,25,10,15,16,15,25,30,15,26,25,20,25,15,35,20,30,15,25,25,30,1e+08,15,20,30,25,35,30,20,25,20,25,30,31,30,20,26,25,15,30,20,16,35,26,25,30,35,35,35,20,15,25,20,31,30,30,30,31,20,21,20,26,35,25,25,20,30,15,20,30,25,25,25,25,25,30,30,17,21,24,27,18,21,26,20,16,27,16,29,10,19,12,29,16,29,32,16,13,15,18,21,12,18,23,44,19,19,21,19,30,17,17,16,23,33,10,24,18,22,21,18,15,15,14,20,20,15,20,9,28,22,25,17,14,19,23,32,13,12,14,19,24,20,18,26,16,18,19,24,17,19,25,18,17,18,23,18,22,24,25,19,28,29,31,23,29,21,24,13,25,17,20,23,20,23,15,19
25,25,20,20,20,25,25,41,30,20,30,30,25,30,16,30,25,30,16,20,20,10,21,20,20,26,25,26,20,30,10,20,35,25,30,25,20,26,20,21,26,41,25,25,15,1e+08,20,25,20,30,40,25,21,25,30,25,31,30,25,30,15,25,25,30,26,25,30,30,30,25,20,25,20,20,30,21,21,30,30,31,30,30,25,30,30,25,30,20,31,25,30,26,36,21,21,55,30,25,36,20,25,21,19,16,22,24,21,27,27,24,18,17,20,23,13,24,32,26,23,21,19,25,26,23,19,21,22,21,23,28,21,27,24,20,24,23,19,20,18,25,28,21,21,20,27,21,23,23,21,22,23,22,24,22,22,25,28,26,29,22,19,29,21,15,24,21,28,24,19,30,21,22,21,21,18,20,20,17,28,24,28,25,20,27,26,22,27,22,19,19,24,17,28,20,16,28,22,23,30,22
25,21,20,16,26,20,25,20,41,25,26,26,25,41,30,15,20,25,25,31,26,15,20,30,25,41,25,31,15,25,25,20,35,30,35,36,25,26,30,25,20,40,25,15,20,20,1e+08,20,30,35,35,45,36,40,35,20,20,30,16,40,20,15,20,20,46,35,26,50,45,25,56,40,20,41,50,21,31,30,41,16,26,35,30,41,35,25,56,20,11,15,30,15,25,30,20,41,31,20,20,25,16,24,20,22,19,35,22,23,29,18,22,16,16,16,18,20,26,31,33,26,21,32,28,26,14,22,17,21,22,24,32,25,19,24,18,20,22,23,23,16,27,16,28,32,20,27,25,17,28,18,23,30,20,18,22,34,23,15,22,23,19,21,25,27,23,16,29,23,17,27,22,23,33,25,30,21,42,18,25,22,32,27,20,26,23,28,21,13,26,32,32,17,17,15,19,26,21,14,35,20
21,21,25,21,30,21,30,25,10,20,20,26,35,25,20,30,10,25,16,20,25,10,30,25,25,30,25,26,10,21,26,20,25,35,21,35,20,31,31,31,31,25,30,20,30,25,20,1e+08,25,35,30,31,26,30,30,36,35,30,25,26,20,10,40,26,30,30,25,35,25,30,40,31,31,30,21,26,40,45,35,25,25,25,25,20,25,36,30,31,21,45,30,30,20,40,26,25,35,25,40,15,17,22,22,31,29,21,29,26,32,27,20,24,12,15,12,20,20,34,31,22,18,27,23,15,14,19,24,26,21,19,25,26,26,20,23,21,21,42,28,24,22,21,27,17,25,24,16,25,30,16,22,18,26,22,20,21,17,18,30,29,21,23,17,24,20,18,22,26,13,25,22,23,31,21,21,25,24,17,21,20,30,28,26,20,25,27,21,21,30,25,32,27,23,20,18,28,23,25,24,19
16,16,25,30,46,30,21,21,25,20,40,11,26,15,21,25,5,20,21,35,25,20,21,26,26,15,35,16,10,25,30,11,20,21,30,25,26,35,25,20,30,20,16,30,25,20,30,25,1e+08,26,31,35,20,25,40,25,25,30,36,50,25,5,26,25,20,35,21,25,21,36,45,40,20,26,25,20,20,31,31,20,25,30,21,20,35,15,26,25,16,30,21,15,31,35,25,25,30,20,31,15,21,26,19,32,18,23,23,30,19,31,26,27,15,14,9,22,20,23,23,19,24,17,27,23,11,20,17,28,10,22,23,16,29,18,22,20,18,24,22,24,18,17,29,14,20,31,16,30,25,21,23,21,19,23,23,23,19,12,22,22,20,14,19,24,13,14,13,25,17,20,22,22,22,20,21,33,27,20,26,18,22,25,31,25,23,16,24,19,20,19,35,23,22,22,17,18,30,26,24,33
25,30,21,25,26,26,26,21,26,30,21,31,51,26,16,30,25,20,36,21,30,10,25,21,20,26,25,21,15,35,26,20,35,35,36,31,26,25,30,30,25,40,40,20,35,30,35,35,26,1e+08,35,26,35,36,31,30,40,30,15,31,26,20,45,25,20,31,36,36,35,31,36,41,25,26,30,35,45,36,30,26,25,25,31,35,45,30,36,30,15,25,26,26,20,26,35,35,20,30,30,40,23,20,17,24,17,29,21,26,23,22,24,25,22,16,20,19,29,33,35,20,19,24,25,28,14,19,23,23,21,28,26,26,19,17,21,17,30,31,22,25,25,18,26,28,19,28,23,17,27,22,27,18,23,21,26,23,25,21,28,23,18,22,17,14,29,22,26,25,22,24,23,24,31,28,27,19,37,22,20,27,27,27,25,28,23,28,24,18,28,23,28,19,23,23,24,32,23,19,21,19
21,26,15,25,15,30,31,26,26,20,35,26,25,35,16,16,10,35,21,30,26,15,11,36,26,30,26,21,10,40,26,25,35,40,25,30,25,30,15,25,25,45,26,26,30,40,35,30,31,35,1e+08,35,26,35,36,30,25,35,21,40,20,20,25,45,31,30,25,40,35,25,25,40,20,25,40,25,26,25,30,35,25,30,20,46,35,35,55,25,26,30,20,25,31,25,30,41,36,21,31,20,26,25,19,25,13,33,28,23,32,26,25,23,22,13,14,18,27,28,29,17,18,29,24,27,16,26,19,19,27,31,29,29,19,23,21,19,25,29,19,27,27,18,27,27,25,27,25,21,25,23,21,27,24,21,18,30,30,16,29,25,17,28,25,24,20,18,36,27,16,28,22,22,33,25,23,24,30,18,30,25,30,23,25,31,25,20,22,19,23,31,25,17,21,20,20,28,26,15,38,25
21,26,21,25,31,20,20,35,26,25,36,31,25,36,21,21,10,35,11,30,21,15,21,35,30,45,25,10,25,35,25,25,30,20,35,36,31,25,20,21,35,30,26,25,20,25,45,31,35,26,35,1e+08,35,26,51,21,20,30,31,55,31,15,30,25,26,30,31,26,36,35,35,46,20,31,61,26,25,21,26,15,20,36,36,31,30,31,36,16,36,25,45,26,30,30,30,36,26,30,40,20,24,29,23,27,19,31,27,27,30,23,20,25,24,17,19,18,38,19,25,18,22,29,31,30,15,25,22,21,22,25,32,28,17,21,24,25,21,22,27,25,24,22,34,27,25,33,23,28,32,23,27,25,22,23,21,30,27,19,27,16,18,24,29,23,18,23,27,27,16,25,23,19,33,20,29,28,37,19,32,23,32,19,25,30,21,21,28,22,22,24,31,26,20,20,15,21,28,20,33,23
15,36,25,26,30,26,26,15,15,20,21,41,36,26,20,21,15,35,26,21,36,15,35,26,15,30,20,11,20,21,26,21,45,25,31,26,20,30,21,50,35,35,45,25,25,21,36,26,20,35,26,35,1e+08,35,35,41,31,40,15,36,20,25,36,36,31,16,21,36,40,35,21,20,40,31,26,30,25,20,36,25,15,26,35,31,35,35,51,35,25,35,25,40,25,21,26,31,26,35,30,31,26,19,21,26,19,27,28,19,28,22,24,23,17,16,17,19,27,26,27,31,14,27,22,24,13,27,21,18,36,23,25,31,22,28,23,22,24,28,22,20,25,18,25,27,30,28,29,20,23,27,31,20,25,20,24,28,22,21,32,14,18,31,20,19,29,18,29,28,21,26,30,23,26,33,28,20,23,21,28,30,37,27,23,23,15,26,27,14,30,24,24,14,21,22,20,38,35,19,26,24
20,30,26,31,41,31,21,15,25,25,21,16,31,41,16,35,15,30,21,30,36,25,41,16,25,21,30,21,15,35,26,21,25,36,26,41,26,30,35,31,36,46,31,20,20,25,40,30,25,36,35,26,35,1e+08,31,35,41,40,10,30,26,25,46,30,25,35,20,40,35,31,26,31,25,35,30,21,30,26,30,35,20,30,21,30,45,30,40,36,20,30,40,31,45,30,30,35,21,20,40,30,25,26,21,28,24,35,29,26,40,17,29,27,15,20,14,21,28,30,37,28,19,31,24,24,15,22,19,20,29,20,24,34,19,31,22,25,24,30,28,23,29,22,32,30,24,26,24,16,26,27,29,22,19,24,28,31,26,19,30,25,21,31,19,21,22,17,31,27,18,22,23,29,39,33,28,24,32,20,24,20,36,22,28,27,20,29,31,16,27,28,26,22,23,24,17,36,23,25,28,22
16,16,21,30,36,15,30,26,36,15,30,21,30,26,21,21,20,30,21,30,20,15,11,25,30,20,21,11,11,20,20,25,30,25,35,31,26,25,20,26,30,40,30,25,25,30,35,30,40,31,36,51,35,31,1e+08,30,25,30,26,65,21,10,35,25,25,30,26,25,36,46,50,55,15,21,40,31,25,31,26,21,20,36,26,41,35,30,26,20,26,25,26,21,35,35,20,35,30,20,36,25,22,28,22,31,14,27,25,33,28,28,24,26,14,13,16,17,24,29,24,19,27,24,33,25,13,22,24,26,19,30,35,21,24,20,23,23,22,32,22,23,19,18,30,28,26,27,21,27,31,21,22,25,19,24,20,33,21,14,28,23,17,20,17,25,22,21,21,34,18,25,23,20,30,25,31,29,31,16,25,23,26,19,25,28,20,22,25,18,22,28,26,25,22,19,19,20,31,23,30,23
10,20,25,26,20,31,35,26,15,25,20,15,35,20,20,25,25,20,16,25,20,20,30,26,15,20,25,21,15,20,25,20,20,30,21,15,25,30,31,26,30,35,45,25,30,25,20,36,25,30,30,21,41,35,30,1e+08,30,35,10,25,15,15,35,26,20,21,25,26,25,20,21,21,36,30,20,25,25,25,20,25,30,46,20,20,30,31,30,51,26,25,25,20,25,20,30,25,25,15,30,30,23,20,16,24,24,19,21,22,26,24,32,25,19,18,15,23,21,24,24,21,20,30,19,23,18,21,15,24,28,24,25,26,25,16,22,19,27,28,20,21,24,20,23,20,24,20,24,20,25,27,34,14,23,18,24,25,23,21,22,22,18,28,25,18,22,19,26,25,24,31,27,22,27,35,26,20,24,16,28,24,25,19,22,22,19,22,23,20,24,27,19,19,21,30,19,26,28,20,25,22
30,25,20,36,20,21,30,26,20,20,30,25,40,15,26,35,25,21,31,16,30,35,30,21,20,21,25,30,15,36,30,26,35,35,31,25,20,26,30,31,41,35,36,30,31,31,20,35,25,40,25,20,31,41,25,30,1e+08,41,15,15,20,40,45,36,25,30,30,31,40,20,20,16,36,35,36,31,40,30,25,41,20,26,35,25,40,30,25,35,25,30,31,35,35,26,26,31,20,20,35,36,33,21,22,27,27,27,34,25,31,19,25,25,18,21,15,19,27,29,32,23,19,27,31,23,17,22,22,25,29,23,24,31,22,27,24,26,31,30,25,21,26,24,34,23,27,22,24,22,25,27,32,19,23,19,22,25,23,17,26,16,18,40,19,26,23,26,32,23,21,28,23,33,26,33,30,26,22,20,28,28,32,24,24,25,20,22,31,24,24,30,27,22,22,19,22,37,23,21,29,22
16,21,20,40,15,21,30,16,20,25,20,16,30,35,16,30,10,40,26,25,31,25,31,26,20,35,25,15,10,40,25,21,40,25,20,25,25,31,25,26,46,30,41,30,30,30,30,30,30,30,35,30,40,40,30,35,41,1e+08,20,35,26,15,35,31,25,50,25,45,30,30,40,26,36,30,30,25,30,35,40,55,25,31,25,30,35,30,25,35,16,25,35,40,40,35,26,35,26,25,31,26,24,29,19,29,30,27,25,24,30,23,29,29,13,16,18,19,26,31,36,26,24,34,26,21,14,22,23,25,31,24,24,30,21,27,25,24,21,37,23,29,31,14,29,23,25,26,24,22,28,25,28,21,23,20,24,28,23,16,32,21,17,31,21,30,18,19,28,27,20,27,25,32,31,35,25,21,33,20,30,22,36,25,20,26,24,24,30,19,29,26,34,23,22,21,21,36,24,24,32,27
25,20,20,25,16,35,25,40,11,10,31,30,20,16,25,15,20,16,15,11,20,15,11,30,45,16,20,30,11,21,20,20,30,15,16,21,31,25,25,20,16,15,15,30,20,25,16,25,36,15,21,31,15,10,26,10,15,20,1e+08,26,15,30,15,20,11,26,16,15,11,11,26,21,25,11,31,10,15,15,16,15,25,25,25,21,20,20,16,15,15,31,21,15,30,25,10,20,21,30,26,11,18,20,28,18,20,18,31,19,12,30,11,20,20,27,13,24,20,20,18,14,12,17,20,13,11,15,22,25,14,18,21,15,27,12,25,22,12,18,11,28,16,28,17,17,18,17,19,36,20,11,19,15,25,26,19,13,18,24,20,22,14,13,17,22,20,24,18,25,16,17,15,14,15,21,14,19,15,23,14,15,19,17,26,19,25,18,29,28,20,15,18,15,25,22,24,13,20,24,12,26
15,16,30,30,31,26,35,21,16,20,35,25,20,35,25,20,15,30,31,25,21,15,21,36,20,30,25,26,30,25,30,30,51,35,30,30,30,30,20,20,30,55,30,20,26,30,40,26,50,31,40,55,36,30,65,25,15,35,26,1e+08,26,20,30,20,20,30,31,30,36,40,35,55,15,31,45,25,26,25,36,25,16,50,30,30,31,25,46,20,21,21,30,16,35,30,25,45,30,35,26,20,22,26,20,28,13,32,26,28,26,26,22,31,19,11,16,18,31,24,24,19,23,24,25,24,13,27,23,18,23,35,31,28,26,24,20,21,23,25,24,22,23,18,30,29,22,29,23,30,25,22,28,27,22,25,19,26,26,16,17,27,17,20,23,23,17,19,28,29,20,28,28,21,32,28,34,31,29,15,30,25,28,26,21,33,22,25,19,23,22,26,31,17,20,24,22,21,28,23,34,26
21,35,21,25,16,25,20,30,21,35,31,16,30,16,15,25,20,15,30,31,30,25,26,26,21,21,21,10,20,26,21,15,25,20,26,26,11,25,20,21,15,25,16,25,25,15,20,20,25,26,20,31,20,26,21,15,20,26,15,26,1e+08,15,30,15,16,26,21,26,20,21,16,16,20,26,30,41,25,26,20,30,30,10,26,25,26,11,25,21,35,25,40,31,30,20,36,25,25,20,35,15,21,19,22,20,23,25,26,28,29,28,18,26,20,27,20,22,21,21,20,19,12,17,22,19,14,17,27,22,16,20,22,19,21,17,25,29,25,22,14,23,21,19,23,29,16,26,21,15,21,20,22,11,18,24,19,26,21,23,26,22,20,20,13,16,25,21,17,22,14,17,25,23,22,19,25,25,27,31,18,26,24,14,21,24,26,23,20,24,23,26,22,14,25,14,20,26,21,25,19,20
30,30,25,20,15,25,15,10,25,11,20,35,20,15,25,20,25,15,25,10,10,25,10,25,25,15,11,40,30,15,25,25,25,10,15,10,30,25,20,25,16,20,30,20,15,25,15,10,5,20,20,15,25,25,10,15,40,15,30,20,15,1e+08,10,20,25,15,20,15,25,15,15,20,10,10,15,25,20,10,15,15,30,15,20,20,15,25,25,15,25,11,15,30,35,20,25,16,20,35,15,30,20,13,21,13,13,18,17,17,18,16,15,18,19,24,21,18,22,23,13,18,11,19,21,20,13,16,21,15,22,23,21,24,13,17,17,15,18,12,9,22,22,20,13,22,19,12,17,21,18,19,18,16,31,18,19,18,19,32,25,13,14,28,12,15,20,27,22,17,17,19,20,17,13,20,19,13,17,17,20,20,19,20,16,18,17,27,27,21,18,27,10,11,19,12,25,16,14,16,13,15
30,40,25,31,41,26,25,30,20,30,30,25,35,30,11,30,10,25,31,21,31,15,25,26,30,15,25,21,15,25,26,25,25,46,41,35,20,25,35,25,40,25,45,26,30,25,20,40,26,45,25,30,36,46,35,35,45,35,15,30,30,10,1e+08,30,30,31,20,36,45,30,26,36,30,25,41,40,50,40,36,31,20,40,30,25,61,35,26,30,21,31,30,26,25,25,41,36,20,30,46,25,23,27,20,28,27,21,26,28,31,25,29,29,20,18,24,21,27,30,39,20,19,21,23,22,14,24,28,22,25,18,23,27,28,24,24,19,31,35,26,20,22,19,29,18,17,26,19,27,28,22,24,14,27,24,27,23,23,19,29,18,16,24,17,18,20,21,27,29,16,22,22,22,27,28,32,20,27,21,18,18,24,28,24,21,23,29,16,24,29,30,26,23,22,19,24,27,19,20,17,18
31,30,21,20,30,16,25,16,20,20,25,25,25,25,11,20,20,26,26,6,15,20,26,30,25,35,25,20,10,30,25,26,45,30,26,25,25,15,30,21,36,35,31,25,20,30,20,26,25,25,45,25,36,30,25,26,36,31,20,20,15,20,30,1e+08,30,15,20,40,40,30,35,31,16,20,26,25,30,20,30,35,15,21,30,35,25,40,20,15,16,20,30,30,30,21,26,35,20,25,21,31,26,27,14,18,23,25,22,23,28,18,30,23,20,13,12,20,25,28,32,25,22,30,21,19,20,22,20,16,25,28,24,32,17,26,23,23,20,28,22,27,30,12,27,25,27,25,21,21,27,25,27,20,20,19,22,26,28,14,24,19,17,31,18,19,20,15,28,19,18,32,24,21,31,26,21,23,25,14,35,27,33,24,23,24,15,22,28,18,24,24,18,22,20,22,21,32,25,19,30,20
25,31,25,15,21,15,15,20,20,20,16,26,16,36,20,20,10,20,16,16,16,10,16,26,15,31,20,15,5,15,15,16,25,35,40,46,20,20,20,20,16,30,20,25,16,26,46,30,20,20,31,26,31,25,25,20,25,25,11,20,16,25,30,30,1e+08,25,16,31,55,40,36,25,20,21,26,25,35,35,41,30,20,20,40,26,15,30,21,20,15,15,30,35,30,26,35,31,26,30,20,40,24,28,17,27,24,22,12,21,29,18,23,19,13,17,20,18,22,26,31,23,22,30,28,25,16,23,16,18,25,23,26,20,18,25,18,22,23,25,25,17,30,12,29,28,23,19,22,14,27,22,20,23,24,20,22,27,20,18,19,22,22,25,16,20,19,12,25,21,16,28,22,20,27,21,21,21,32,17,23,23,36,28,16,18,19,24,28,17,25,28,24,18,22,12,18,28,24,16,27,17
16,11,25,21,26,26,21,21,26,25,25,16,21,30,30,31,15,30,11,36,21,15,30,16,30,30,31,15,10,35,31,25,25,21,20,25,25,26,26,25,30,25,25,30,35,25,35,30,35,31,30,30,16,35,30,21,30,50,26,30,26,15,31,15,25,1e+08,26,40,41,30,46,30,26,46,20,30,20,35,26,45,20,25,15,26,31,25,26,20,11,36,31,21,30,30,21,25,35,15,30,15,21,29,23,28,26,25,27,23,22,33,21,26,12,15,11,21,20,27,28,21,26,20,22,22,13,20,16,30,16,20,23,18,24,25,21,23,22,32,30,26,26,13,28,20,20,25,19,16,26,21,28,24,17,21,23,35,24,14,21,26,26,16,19,31,14,10,23,26,16,21,20,22,31,28,25,28,33,26,23,18,23,21,25,30,22,20,26,14,23,24,33,27,22,18,20,29,19,25,26,26
31,30,20,35,26,20,25,26,21,15,30,30,35,30,26,30,20,21,31,25,21,20,25,20,31,21,25,20,10,30,25,25,30,20,26,40,25,20,20,30,26,35,25,15,26,30,26,25,21,36,25,31,21,20,26,25,30,25,16,31,21,20,20,20,16,26,1e+08,25,21,31,30,31,20,36,25,20,25,30,31,30,30,25,30,26,11,25,41,25,16,15,26,21,25,31,20,26,11,30,26,36,23,24,20,30,16,28,24,24,22,23,25,25,13,23,15,22,22,25,28,20,18,22,26,25,19,23,22,26,25,28,26,24,25,30,19,22,23,29,18,25,21,23,26,25,18,17,19,18,26,16,24,22,30,19,23,21,26,26,22,21,16,22,20,23,29,21,27,23,22,27,22,19,27,23,21,20,31,17,26,16,17,33,20,31,22,24,23,24,32,23,29,17,23,16,20,20,21,25,29,22
26,26,20,26,26,21,25,21,25,16,30,30,35,40,20,31,10,30,26,21,26,10,35,21,20,45,25,11,15,41,36,20,35,36,16,35,20,21,36,35,26,35,40,35,25,30,50,35,25,36,40,26,36,40,25,26,31,45,15,30,26,15,36,40,31,40,25,1e+08,40,35,36,26,30,30,30,26,40,40,40,40,25,35,40,45,41,21,40,30,16,25,20,40,36,30,31,26,36,25,31,20,34,27,17,30,23,34,26,24,34,20,22,28,15,16,16,15,26,33,39,26,27,31,24,24,18,18,20,21,22,23,22,32,20,28,22,20,23,37,32,22,27,17,30,22,26,20,24,24,24,23,23,25,27,18,25,31,27,15,30,16,25,28,22,26,21,14,31,26,17,28,24,24,34,24,25,26,32,18,27,27,33,27,24,29,18,32,25,18,28,26,28,26,17,19,23,33,25,19,31,24
21,31,35,26,26,20,25,20,41,20,30,21,25,30,16,25,15,31,25,16,20,15,25,35,16,35,15,11,15,35,35,25,50,35,26,21,20,25,20,26,31,45,30,20,30,30,45,25,21,35,35,36,40,35,36,25,40,30,11,36,20,25,45,40,55,41,21,40,1e+08,56,36,36,20,26,40,35,31,30,41,15,16,40,25,30,31,25,31,35,21,20,31,30,40,36,21,35,30,30,35,40,31,26,23,25,26,28,23,29,38,23,29,26,15,12,13,21,27,31,35,24,23,32,28,29,16,23,23,18,22,24,29,33,20,28,24,26,28,32,32,17,26,16,33,31,24,25,24,24,31,29,26,23,24,23,21,32,31,17,23,24,19,31,17,26,22,18,32,25,15,31,28,24,32,27,36,26,32,19,29,25,38,27,20,23,19,26,29,21,23,34,33,22,17,18,20,39,27,16,25,22
16,30,21,35,36,15,26,25,26,20,36,30,26,26,26,26,10,30,21,25,30,20,25,20,20,30,21,11,20,26,30,15,46,30,35,31,26,25,25,35,35,25,35,20,35,25,25,30,36,31,25,35,35,31,46,20,20,30,11,40,21,15,30,30,40,30,31,35,56,1e+08,35,45,20,26,25,35,31,41,51,20,20,30,31,30,21,25,26,25,20,20,21,36,30,30,25,35,30,30,36,25,25,28,21,34,20,25,20,26,21,23,24,24,17,18,21,24,24,31,29,23,22,23,23,22,15,22,23,27,20,25,28,26,21,23,25,21,24,34,29,21,24,16,38,29,25,29,18,27,26,23,23,23,24,29,26,27,21,16,28,25,21,21,20,26,25,19,18,26,19,29,26,25,33,26,33,27,30,22,28,25,27,28,30,29,20,30,29,21,31,30,33,29,21,15,17,26,30,23,23,22
31,16,30,30,31,20,26,16,20,21,30,16,31,35,25,21,20,25,21,31,31,15,16,31,35,40,21,31,15,35,51,10,30,31,30,35,30,31,31,26,25,35,20,26,35,20,56,40,45,36,25,35,21,26,50,21,20,40,26,35,16,15,26,35,36,46,30,36,36,35,1e+08,35,26,35,30,11,35,30,45,21,31,20,30,31,31,20,40,25,16,21,21,26,25,40,21,21,26,30,26,30,16,29,21,34,17,30,31,29,27,27,27,26,11,15,18,25,19,30,34,20,25,22,29,26,10,21,22,32,19,20,27,22,24,26,20,24,23,29,20,24,22,18,26,26,22,23,19,24,27,16,21,27,22,26,22,30,23,16,28,26,18,16,17,32,21,16,25,25,15,27,24,19,22,24,26,27,37,18,28,15,24,34,25,29,24,27,25,20,24,27,33,23,23,16,21,25,25,23,30,20
21,21,15,21,26,31,26,25,20,26,25,16,30,30,26,31,15,35,35,25,25,15,21,30,31,31,21,36,20,35,45,25,26,21,36,36,21,30,21,30,35,31,31,15,35,25,40,31,40,41,40,46,20,31,55,21,16,26,21,55,16,20,36,31,25,30,31,26,36,45,35,1e+08,21,31,51,21,31,31,31,21,31,45,26,30,36,26,41,26,16,25,21,16,16,35,25,25,20,30,30,40,20,29,17,31,14,28,25,32,26,30,25,24,17,17,15,24,26,28,36,22,25,25,26,28,13,26,21,28,22,26,33,28,25,20,21,22,22,29,27,23,25,18,30,29,24,26,24,27,30,15,14,26,24,24,19,25,20,20,31,26,20,19,23,25,23,23,26,29,15,27,21,19,30,27,31,28,31,18,29,18,23,26,24,30,21,29,27,22,23,28,27,25,18,21,21,18,27,22,28,26
20,16,20,26,15,21,11,21,15,30,15,11,35,11,15,35,20,20,26,25,30,20,25,21,25,25,20,11,15,20,26,21,25,31,21,25,15,31,16,50,31,25,35,26,20,20,20,31,20,25,20,20,40,25,15,36,36,36,25,15,20,10,30,16,20,26,20,30,20,20,26,21,1e+08,20,21,21,40,25,15,40,26,26,30,10,30,40,30,50,20,30,25,30,30,25,20,35,20,15,30,31,22,19,18,30,22,20,22,26,26,16,27,22,15,17,16,16,19,27,29,27,20,26,27,19,13,17,22,22,29,17,18,16,23,19,16,18,24,31,22,18,23,21,27,19,20,25,24,15,28,24,30,15,19,15,25,30,19,21,27,18,21,24,19,22,20,21,26,22,18,19,28,27,25,27,24,22,26,21,15,34,34,20,21,15,19,23,27,20,31,22,28,17,15,22,21,33,28,22,26,18
11,20,30,26,26,21,35,15,21,30,15,21,30,26,36,25,30,20,20,21,31,20,45,21,26,36,30,26,15,35,35,20,20,25,21,35,25,31,20,25,36,25,25,20,15,20,41,30,26,26,25,31,31,35,21,30,35,30,11,31,26,10,25,20,21,46,36,30,26,26,35,31,20,1e+08,21,35,25,40,36,20,25,30,20,21,30,15,35,30,20,25,30,26,25,31,26,31,31,25,25,21,22,23,21,27,32,26,26,28,27,28,24,25,21,25,21,22,23,26,28,18,23,30,26,23,13,26,22,19,20,20,27,24,28,26,26,28,25,26,27,20,28,20,30,27,22,26,22,23,27,21,20,26,17,22,20,29,21,19,24,23,17,25,21,34,24,19,28,22,16,24,22,22,37,28,27,22,33,22,30,21,26,25,23,31,27,20,17,18,26,28,36,22,23,17,23,29,27,27,34,25
31,31,16,16,21,26,20,26,40,21,35,35,25,30,16,21,20,35,31,30,26,15,11,30,25,31,16,21,25,40,25,25,35,26,46,30,35,20,25,16,25,45,26,25,25,30,50,21,25,30,40,61,26,30,40,20,36,30,31,45,30,15,41,26,26,20,25,30,40,25,30,51,21,21,1e+08,26,31,21,26,31,16,30,36,41,41,26,41,21,21,25,35,25,25,35,25,30,36,25,35,30,23,27,19,21,14,34,24,31,30,25,26,23,21,17,21,19,35,24,27,25,21,25,29,29,12,28,23,26,25,26,31,32,21,24,17,22,25,24,22,25,28,20,32,24,25,34,21,24,31,21,19,26,27,30,20,28,24,15,27,23,21,25,25,26,22,25,25,25,17,25,21,22,34,23,30,26,35,16,31,29,30,21,26,30,24,25,27,19,21,34,27,26,17,20,21,25,22,18,28,28
26,40,30,31,25,26,30,20,30,25,25,31,35,21,15,20,20,20,25,11,25,25,25,16,31,21,26,25,30,31,16,15,21,31,26,30,21,31,16,31,25,20,30,25,20,21,21,26,20,35,25,26,30,21,31,25,31,25,10,25,41,25,40,25,25,30,20,26,35,35,11,21,21,35,26,1e+08,30,26,26,21,20,21,36,25,31,26,10,21,20,21,25,26,30,15,51,21,25,30,41,25,25,21,20,28,22,21,20,27,30,23,27,25,23,22,19,20,23,31,30,22,18,25,26,22,13,20,18,17,22,25,28,23,18,20,25,22,30,24,20,24,26,17,25,30,20,23,19,15,26,22,22,17,23,23,24,25,20,26,27,25,18,21,16,20,25,18,21,24,18,25,20,18,27,23,28,26,32,24,21,22,24,24,23,20,17,26,22,18,25,28,27,21,25,14,31,23,22,21,21,18
56,41,20,31,35,21,21,30,20,30,25,26,45,25,15,25,25,20,30,21,35,30,20,36,21,35,20,21,25,30,35,15,21,60,36,25,20,45,30,25,40,25,25,30,31,21,31,40,20,45,26,25,25,30,25,25,40,30,15,26,25,20,50,30,35,20,25,40,31,31,35,31,40,25,31,30,1e+08,41,41,25,26,16,45,30,46,30,30,35,15,25,30,20,25,30,36,40,20,26,30,25,18,23,20,25,26,27,29,24,28,23,27,27,21,16,25,22,23,33,44,21,20,18,29,20,15,21,24,22,28,16,24,26,24,17,24,20,35,34,19,25,21,21,28,19,18,25,16,18,26,22,19,15,26,18,23,21,19,21,28,20,15,22,17,18,27,26,23,27,19,22,24,20,26,24,31,22,27,23,22,18,25,32,26,22,23,30,22,26,32,25,28,23,21,13,24,30,20,20,20,18
21,20,31,21,35,26,25,25,21,20,25,25,35,36,26,30,5,25,25,25,25,30,35,30,25,30,31,16,10,26,40,15,26,35,31,46,26,36,30,30,30,20,30,30,30,30,30,45,31,36,25,21,20,26,31,25,30,35,15,25,26,10,40,20,35,35,30,40,30,41,30,31,25,40,21,26,41,1e+08,35,31,21,25,41,20,25,30,26,25,20,30,26,31,25,35,36,30,20,20,40,25,24,21,18,37,26,24,24,27,27,18,23,24,10,18,20,22,16,31,34,21,23,28,33,17,12,23,24,28,22,23,27,20,22,21,22,22,30,39,37,24,21,22,33,24,26,21,14,18,27,16,19,19,27,24,21,24,18,14,27,22,22,17,21,25,19,24,22,25,14,21,21,24,33,20,21,21,31,18,24,22,26,30,29,19,19,27,28,18,33,24,36,26,21,18,19,28,27,18,24,21
21,36,15,25,36,20,20,20,31,25,35,31,25,41,30,20,10,31,15,26,26,15,20,30,21,40,25,11,10,30,31,15,30,31,26,40,30,26,25,30,31,25,25,35,30,30,41,35,31,30,30,26,36,30,26,20,25,40,16,36,20,15,36,30,41,26,31,40,41,51,45,31,15,36,26,26,41,35,1e+08,35,26,30,35,31,26,20,36,25,20,15,26,30,30,41,25,35,31,35,30,25,23,31,17,27,28,33,24,23,24,23,23,27,17,14,17,22,24,32,31,20,20,27,26,28,13,24,22,24,23,27,31,27,21,31,21,21,18,27,30,21,26,14,32,30,23,26,15,25,26,22,24,27,29,19,26,30,24,17,24,21,21,14,21,30,20,15,26,24,15,25,25,18,38,27,24,22,41,20,31,19,29,33,26,34,17,28,25,14,30,28,35,21,24,13,21,28,23,15,33,23
21,15,21,31,25,21,21,21,25,25,25,10,30,35,15,36,15,25,16,25,25,15,26,16,25,25,30,11,10,20,31,26,30,31,26,30,26,26,21,26,30,36,25,30,30,31,16,25,20,26,35,15,25,35,21,25,41,55,15,25,30,15,31,35,30,45,30,40,15,20,21,21,40,20,31,21,25,31,35,1e+08,20,36,21,30,30,40,25,26,15,40,30,50,40,16,21,45,20,20,35,25,24,23,18,28,22,26,23,23,32,18,25,22,10,17,18,14,24,28,34,22,22,30,26,23,19,18,19,24,26,29,22,25,20,26,21,23,19,26,23,28,29,17,26,22,26,22,22,18,26,23,32,22,19,16,28,31,28,21,31,23,24,31,22,25,17,17,31,21,18,26,26,26,24,29,21,23,26,20,19,24,31,19,24,26,19,19,33,18,31,19,27,20,20,24,18,35,24,23,26,22
20,31,16,30,21,46,41,36,10,15,30,15,31,15,31,20,25,20,31,15,25,30,25,36,35,15,20,36,15,20,30,20,16,26,20,25,20,25,30,30,20,36,30,21,31,30,26,25,25,25,25,20,15,20,20,30,20,25,25,16,30,30,20,15,20,20,30,25,16,20,31,31,26,25,16,20,26,21,26,20,1e+08,21,30,25,21,20,21,21,21,20,20,25,30,21,30,30,25,30,21,31,17,17,24,25,23,21,26,24,18,32,15,23,20,27,22,28,18,28,24,14,13,18,18,23,14,18,23,31,21,23,22,24,26,16,20,21,24,23,13,27,16,19,20,22,19,17,17,27,19,15,21,10,24,21,19,17,17,28,26,30,15,17,19,19,21,23,25,28,16,18,22,21,20,24,21,20,25,25,19,18,23,21,24,19,27,28,27,29,23,24,20,10,28,15,25,20,22,23,22,18
15,16,20,21,20,25,30,15,35,25,30,15,20,20,20,25,15,40,25,20,21,10,30,30,25,30,25,21,25,30,25,26,40,15,26,35,16,25,25,31,21,50,36,20,20,30,35,25,30,25,30,36,26,30,36,46,26,31,25,50,10,15,40,21,20,25,25,35,40,30,20,45,26,30,30,21,16,25,30,36,21,1e+08,20,35,31,31,40,25,15,25,25,30,36,31,10,36,21,30,21,21,27,19,19,24,21,24,22,19,30,20,24,25,17,13,13,18,36,17,23,20,20,32,18,21,16,24,18,25,21,27,21,32,23,23,20,16,22,24,23,21,21,16,24,19,27,21,21,27,22,22,24,21,22,20,18,23,26,19,19,24,18,25,22,23,20,17,28,23,21,28,26,28,28,28,23,20,19,11,26,23,30,19,24,32,16,20,30,20,25,19,22,18,16,26,16,25,31,21,26,21
45,40,25,31,30,21,15,30,21,20,30,35,20,21,21,25,15,25,35,20,20,25,30,30,25,36,16,10,20,16,30,10,25,40,30,31,21,16,30,25,30,30,30,20,21,25,30,25,21,31,20,36,35,21,26,20,35,25,25,30,26,20,30,30,40,15,30,40,25,31,30,26,30,20,36,36,45,41,35,21,30,20,1e+08,30,35,15,16,25,20,20,21,31,20,25,30,20,15,30,35,25,23,24,16,29,19,25,18,24,20,20,29,24,16,21,18,21,24,23,33,18,27,26,35,21,15,24,26,22,20,25,32,26,22,16,24,21,34,29,23,22,20,20,28,26,14,20,14,23,25,19,19,17,31,22,23,18,16,26,22,19,14,21,23,16,24,21,24,23,17,24,23,20,24,21,30,22,24,18,23,25,23,36,17,17,16,28,25,29,27,27,28,20,23,16,27,26,22,16,17,17
26,21,20,20,20,15,16,21,36,20,35,16,21,35,16,10,25,30,16,21,21,10,16,20,26,35,20,25,25,40,20,35,35,25,21,40,26,20,25,20,20,45,30,20,20,30,41,20,20,35,46,31,31,30,41,20,25,30,21,30,25,20,25,35,26,26,26,45,30,30,31,30,10,21,41,25,30,20,31,30,25,35,30,1e+08,25,20,30,20,31,20,25,20,46,26,15,41,21,20,26,21,28,26,18,18,14,33,14,21,26,21,22,20,20,15,16,21,32,31,28,19,17,30,22,25,19,21,16,21,22,29,29,28,18,20,18,17,23,24,17,24,29,15,23,27,24,18,24,17,25,18,24,24,20,17,20,25,26,15,22,16,16,29,26,16,23,19,29,27,20,29,22,22,24,23,28,15,27,16,28,25,34,22,28,40,20,20,28,10,21,27,19,13,20,18,18,29,24,19,32,21
26,25,35,16,35,31,21,26,20,30,31,21,31,15,15,41,15,30,26,25,35,15,30,16,35,30,30,26,25,30,31,20,31,26,36,30,25,26,35,30,35,35,30,35,26,30,35,25,35,45,35,30,35,45,35,30,40,35,20,31,26,15,61,25,15,31,11,41,31,21,31,36,30,30,41,31,46,25,26,30,21,31,35,25,1e+08,20,30,25,25,40,30,35,30,25,35,20,30,16,40,15,28,24,23,23,26,21,29,30,36,26,25,28,21,24,24,20,31,27,31,25,21,23,28,22,17,24,27,32,21,19,20,27,24,24,28,22,27,27,25,22,22,24,29,21,20,28,20,26,30,19,22,16,20,23,27,25,27,15,25,23,20,25,22,18,17,23,25,30,19,17,19,24,28,27,23,26,28,20,25,22,28,22,28,28,23,29,22,22,21,24,25,22,23,21,22,28,24,22,22,23
21,11,20,21,20,21,20,16,20,25,10,21,35,30,15,40,10,25,15,21,20,10,25,26,26,25,25,15,10,21,15,5,30,40,26,30,35,25,26,45,30,30,45,16,35,25,25,36,15,30,35,31,35,30,30,31,30,30,20,25,11,25,35,40,30,25,25,21,25,25,20,26,40,15,26,26,30,30,20,40,20,31,15,20,20,1e+08,25,46,20,20,30,35,25,20,21,35,25,20,25,21,20,19,16,25,28,20,19,23,27,14,25,22,15,16,12,20,20,24,32,24,25,25,29,20,18,21,16,19,27,22,28,22,14,19,18,18,20,30,27,25,22,21,30,21,25,23,23,11,29,21,25,18,20,16,25,25,22,17,25,16,18,23,18,20,21,18,23,24,22,23,26,19,28,34,21,21,24,14,22,26,30,19,17,19,21,21,24,12,21,20,23,23,21,22,15,24,32,21,22,18
20,16,20,20,21,25,16,15,16,20,36,31,26,25,16,20,15,36,16,30,36,20,25,26,25,25,25,31,25,30,31,20,40,26,26,45,21,25,20,30,16,45,15,15,25,30,56,30,26,36,55,36,51,40,26,30,25,25,16,46,25,25,26,20,21,26,41,40,31,26,40,41,30,35,41,10,30,26,36,25,21,40,16,30,30,25,1e+08,25,15,25,21,25,30,26,20,36,21,30,25,26,25,24,24,25,14,39,28,20,29,26,17,22,19,17,15,22,31,27,30,23,16,24,25,28,15,29,19,25,25,31,25,31,19,27,17,23,24,29,20,21,25,22,27,27,27,25,30,21,27,16,25,27,21,24,24,33,23,17,30,28,22,24,28,24,24,20,31,26,18,24,22,24,28,18,24,20,26,18,28,27,29,29,25,37,29,34,24,15,26,25,28,14,21,23,18,26,23,22,32,23
11,16,30,31,15,26,21,20,20,20,20,21,30,16,25,30,20,20,20,25,20,20,35,21,16,25,25,21,10,30,35,20,35,25,21,20,20,31,16,50,20,25,40,26,25,20,20,31,25,30,25,16,35,36,20,51,35,35,15,20,21,15,30,15,20,20,25,30,35,25,25,26,50,30,21,21,35,25,25,26,21,25,25,20,25,46,25,1e+08,20,25,25,16,20,25,25,20,20,21,25,30,20,22,18,27,23,23,29,24,32,20,29,23,12,17,12,22,18,23,33,30,25,19,25,18,13,18,22,22,24,15,21,27,22,15,23,21,27,28,24,19,23,22,27,20,18,21,20,20,27,19,22,16,24,17,22,20,21,22,19,18,19,22,17,21,23,22,22,24,23,24,24,21,23,25,24,21,22,15,22,23,23,25,19,18,20,25,19,22,22,27,28,24,21,22,14,31,28,24,19,21
15,31,36,16,20,11,31,46,10,21,15,30,21,15,26,20,20,21,31,25,25,15,16,31,25,15,26,15,25,25,16,30,21,15,16,25,26,20,10,15,16,16,11,25,20,31,11,21,16,15,26,36,25,20,26,26,25,16,15,21,35,25,21,16,15,11,16,16,21,20,16,16,20,20,21,20,15,20,20,15,21,15,20,31,25,20,15,20,1e+08,36,25,15,26,20,30,21,26,26,31,20,16,20,29,17,21,18,29,17,19,25,12,17,22,25,16,23,21,19,16,14,9,15,19,17,14,16,20,22,14,17,22,19,16,17,24,21,22,14,14,24,18,25,16,16,17,18,15,24,13,17,17,9,21,25,16,15,19,22,19,21,18,23,18,16,23,23,17,19,15,18,14,13,15,17,21,25,16,18,19,19,18,12,23,15,21,23,19,25,14,22,19,15,31,14,17,18,16,23,17,23
16,25,20,30,30,21,31,41,15,30,21,26,26,15,21,35,16,30,20,25,30,30,25,21,31,20,40,21,11,31,31,20,26,31,11,20,30,30,25,20,20,25,20,30,30,25,15,45,30,25,30,25,35,30,25,25,30,25,31,21,25,11,31,20,15,36,15,25,20,20,21,25,30,25,25,21,25,30,15,40,20,25,20,20,40,20,25,25,36,1e+08,20,30,20,25,30,30,25,25,35,15,20,21,23,25,22,17,28,27,21,32,17,25,15,24,15,19,22,24,28,17,14,21,20,22,15,16,22,31,18,17,17,20,25,22,26,15,19,26,18,25,21,23,22,16,20,26,15,27,21,15,28,14,24,22,27,21,19,24,28,26,18,19,17,24,16,23,20,30,15,17,20,17,24,24,13,29,21,25,20,20,26,22,33,23,32,22,26,27,23,18,30,18,28,20,18,23,23,26,19,23
21,20,21,16,16,16,20,20,36,20,30,16,25,30,16,30,20,35,20,20,26,5,20,21,21,30,20,15,15,30,30,36,30,20,30,25,31,30,25,26,36,36,31,30,15,30,30,30,21,26,20,45,25,40,26,25,31,35,21,30,40,15,30,30,30,31,26,20,31,21,21,21,25,30,35,25,30,26,26,30,20,25,21,25,30,30,21,25,25,20,1e+08,35,35,35,25,40,25,10,30,30,28,21,16,22,23,27,23,28,34,14,24,20,23,20,12,19,24,24,25,23,20,32,31,25,13,24,23,19,24,20,30,32,21,25,22,24,25,22,22,18,26,22,25,27,27,25,20,19,30,21,23,23,12,18,20,30,28,22,26,15,19,30,20,22,21,21,26,25,17,19,24,25,26,23,33,23,32,21,23,21,35,14,20,23,19,23,31,18,20,26,27,24,17,19,16,34,20,22,26,22
26,15,21,31,26,26,20,15,20,20,16,20,26,26,21,35,25,20,26,20,25,15,26,21,15,36,25,10,10,35,26,21,35,26,21,31,21,21,35,36,46,46,36,25,20,26,15,30,15,26,25,26,40,31,21,20,35,40,15,16,31,30,26,30,35,21,21,40,30,36,26,16,30,26,25,26,20,31,30,50,25,30,31,20,35,35,25,16,15,30,35,1e+08,40,21,35,25,25,30,30,30,31,23,17,27,30,22,23,21,30,15,20,25,17,19,13,20,29,25,27,20,21,32,19,21,16,20,22,16,22,30,23,29,15,27,23,20,24,33,26,26,28,17,27,29,22,26,24,13,21,26,35,18,21,15,22,27,24,22,31,18,22,35,15,20,23,20,27,22,17,28,29,29,27,32,24,22,21,23,28,31,35,20,24,28,17,29,33,20,25,22,24,26,21,21,21,32,20,29,22,20
11,21,30,26,25,35,25,20,31,20,31,31,25,31,16,25,15,26,21,25,26,15,21,21,25,26,30,25,15,26,21,21,60,30,21,30,15,35,25,41,35,61,36,35,30,36,25,20,31,20,31,30,25,45,35,25,35,40,30,35,30,35,25,30,30,30,25,36,40,30,25,16,30,25,25,30,25,25,30,40,30,36,20,46,30,25,30,20,26,20,35,40,1e+08,26,25,36,31,20,36,30,30,23,24,23,27,29,24,25,33,28,24,23,21,17,9,16,29,21,23,21,18,26,27,25,16,20,22,29,23,28,25,23,18,23,29,27,22,23,22,22,24,15,27,26,28,21,23,26,23,24,35,22,20,19,23,34,26,22,22,21,20,29,18,22,19,17,29,26,26,23,29,29,27,30,28,22,28,23,31,27,37,21,28,28,24,24,40,18,21,25,24,15,21,22,20,31,26,28,28,25
20,11,20,26,21,21,21,15,31,31,31,15,26,46,20,26,15,21,15,36,31,10,15,31,25,31,20,10,15,41,25,16,31,20,30,41,20,36,20,30,20,21,25,25,25,21,30,40,35,26,25,30,21,30,35,20,26,35,25,30,20,20,25,21,26,30,31,30,36,30,40,35,25,31,35,15,30,35,41,16,21,31,25,26,25,20,26,25,20,25,35,21,26,1e+08,15,41,26,15,41,20,23,22,14,30,19,26,25,28,25,17,21,22,12,18,13,17,21,30,28,18,20,17,27,22,11,23,20,25,22,18,28,26,25,29,21,17,18,30,23,20,22,20,26,18,21,25,14,17,28,17,19,32,20,19,18,29,27,15,20,19,22,17,17,31,14,20,18,27,17,18,17,20,29,23,24,21,27,17,24,16,29,24,25,25,23,23,24,17,24,25,36,26,19,18,17,24,27,17,22,19
26,35,21,30,25,20,16,26,11,21,25,26,36,21,16,21,25,15,36,21,21,30,20,31,21,21,20,25,25,31,21,15,21,41,30,25,20,31,25,21,35,20,25,26,25,21,20,26,25,35,30,30,26,30,20,30,26,26,10,25,36,25,41,26,35,21,20,31,21,25,21,25,20,26,25,51,36,36,25,21,30,10,30,15,35,21,20,25,30,30,25,35,25,15,1e+08,21,16,40,36,20,17,23,19,26,19,22,22,22,25,19,18,23,18,26,23,21,22,31,27,17,9,22,25,20,14,18,28,20,25,24,22,27,15,21,23,15,26,21,15,26,23,17,23,19,21,24,19,16,19,20,25,10,27,22,24,23,18,27,39,21,19,22,22,15,24,17,25,23,16,25,20,14,21,24,24,23,21,22,22,24,24,29,25,15,25,22,20,27,26,18,21,16,31,17,27,26,25,21,21,17
21,11,21,35,30,26,25,36,21,20,41,15,30,40,21,25,20,20,16,21,26,15,21,26,20,20,25,21,10,45,25,30,40,40,26,26,21,35,20,31,30,45,35,25,25,55,41,25,25,35,41,36,31,35,35,25,31,35,20,45,25,16,36,35,31,25,26,26,35,35,21,25,35,31,30,21,40,30,35,45,30,36,20,41,20,35,36,20,21,30,40,25,36,41,21,1e+08,21,30,31,25,26,22,22,22,18,28,28,29,30,26,23,20,21,18,21,20,28,26,32,21,22,32,26,25,18,21,27,21,32,30,24,25,28,25,23,22,26,26,21,24,27,23,29,26,27,27,23,19,27,25,33,27,22,22,22,29,29,19,23,17,17,27,21,17,20,22,36,24,18,26,30,28,25,24,22,21,27,21,23,29,40,31,24,29,24,23,33,18,23,29,36,15,19,18,20,37,27,23,34,21
25,21,30,20,26,26,35,41,21,30,26,25,25,31,25,25,25,25,26,26,31,15,25,20,35,26,30,25,30,35,20,20,20,25,25,26,35,40,35,25,20,30,30,30,25,30,31,35,30,20,36,26,26,21,30,25,20,26,21,30,25,20,20,20,26,35,11,36,30,30,26,20,20,31,36,25,20,20,31,20,25,21,15,21,30,25,21,20,26,25,25,25,31,26,16,21,1e+08,25,20,10,19,25,26,23,27,27,23,21,24,26,21,23,22,27,18,19,21,20,19,21,22,18,19,24,16,21,24,25,14,21,21,27,25,24,23,22,20,22,22,29,26,19,29,19,23,23,22,26,18,19,19,21,23,23,21,25,22,16,23,28,20,19,18,25,18,14,22,20,18,22,21,19,28,22,27,26,25,26,26,22,28,22,23,26,28,27,20,21,22,25,24,23,23,20,22,21,22,23,23,33
31,36,30,45,30,30,35,31,10,16,20,35,25,20,16,20,16,25,21,10,25,10,30,45,20,15,15,25,25,20,30,21,35,30,20,35,20,30,30,20,35,25,30,25,25,25,20,25,20,30,21,30,35,20,20,15,20,25,30,35,20,35,30,25,30,15,30,25,30,30,30,30,15,25,25,30,26,20,35,20,30,30,30,20,16,20,30,21,26,25,10,30,20,15,40,30,25,1e+08,35,25,13,25,21,24,19,23,30,19,20,31,19,24,17,28,23,22,19,30,27,18,10,20,23,15,12,19,28,23,20,20,24,28,29,17,22,22,19,25,12,31,22,21,20,27,17,18,17,29,23,15,20,10,32,29,22,18,20,31,28,22,15,18,18,25,26,23,23,27,18,25,23,18,18,26,20,17,19,15,25,22,17,38,23,19,26,27,25,26,25,21,23,14,28,24,26,22,26,25,21,19
26,30,25,31,30,30,26,31,20,25,30,26,35,30,16,20,15,35,21,21,40,25,16,26,41,15,26,25,25,26,26,25,31,41,21,36,25,36,25,20,25,25,26,35,30,36,20,40,31,30,31,40,30,40,36,30,35,31,26,26,35,15,46,21,20,30,26,31,35,36,26,30,30,25,35,41,30,40,30,35,21,21,35,26,40,25,25,25,31,35,30,30,36,41,36,31,20,35,1e+08,20,23,21,22,33,21,25,26,28,34,22,20,27,16,20,22,20,23,32,31,20,14,19,29,19,15,20,25,27,21,22,24,24,21,22,27,23,25,31,23,24,22,22,29,21,19,26,17,31,24,20,25,14,25,27,22,22,24,20,27,25,17,18,20,18,19,24,24,33,16,19,24,24,29,20,23,20,30,19,19,17,28,32,26,19,19,21,21,21,30,20,27,21,25,20,21,23,22,21,20,16
20,30,21,25,36,20,20,20,20,20,25,30,30,25,20,15,30,25,35,10,15,20,20,25,15,25,6,26,20,25,20,31,20,30,35,30,20,20,15,31,26,31,46,20,30,20,25,15,15,40,20,20,31,30,25,30,36,26,11,20,15,30,25,31,40,15,36,20,40,25,30,40,31,21,30,25,25,25,25,25,31,21,25,21,15,21,26,30,20,15,30,30,30,20,20,25,10,25,20,1e+08,25,22,13,21,11,22,15,23,23,17,26,21,24,15,17,20,23,20,25,20,16,29,27,29,12,22,22,22,36,26,27,31,19,22,13,16,25,21,18,18,24,25,22,27,25,20,19,18,23,29,24,17,26,14,21,26,20,24,21,18,8,36,21,18,32,30,37,20,18,26,22,23,24,29,30,14,26,14,30,24,24,25,17,18,18,23,33,21,25,29,19,12,24,20,23,28,19,20,27,20
19,21,20,14,21,18,20,14,27,20,32,20,24,29,19,19,12,24,19,21,19,16,18,18,22,28,19,13,15,28,22,23,28,19,20,27,20,20,19,23,22,32,27,19,17,25,16,17,21,23,26,24,26,25,22,23,33,24,18,22,21,20,23,26,24,21,23,34,31,25,16,20,22,22,23,25,18,24,23,24,17,27,23,28,28,20,25,20,16,20,28,31,30,23,17,26,19,13,23,25,1e+08,35,26,33,27,42,26,35,44,26,41,29,29,23,24,32,40,32,35,43,32,43,34,37,29,36,31,29,36,38,39,45,28,41,26,27,37,34,30,30,44,28,42,38,38,42,41,28,39,40,42,29,29,30,30,45,48,26,32,25,26,47,29,33,33,34,40,34,35,40,41,37,42,37,40,32,41,36,43,35,49,24,35,40,25,34,41,26,28,40,33,30,26,33,29,46,36,30,42,38
20,18,22,24,21,15,19,21,21,19,27,22,16,24,15,20,17,22,17,16,24,11,21,21,22,27,21,12,18,27,23,25,30,22,23,28,22,21,17,19,22,24,24,16,21,21,24,22,26,20,25,29,19,26,28,20,21,29,20,26,19,13,27,27,28,29,24,27,26,28,29,29,19,23,27,21,23,21,31,23,17,19,24,26,24,19,24,22,20,21,21,23,23,22,23,22,25,25,21,22,35,1e+08,28,33,24,43,30,37,33,31,38,37,27,29,20,35,36,31,36,35,27,36,38,35,25,37,30,32,28,35,36,34,31,35,30,36,29,31,25,32,37,29,34,32,33,42,35,30,38,30,31,33,36,35,31,37,40,24,31,35,31,36,30,26,28,30,33,35,32,40,36,35,32,28,35,30,34,31,40,37,34,34,33,34,28,36,35,31,31,38,32,32,33,35,29,33,34,30,39,39
21,20,26,28,23,25,29,26,13,25,20,23,21,15,18,18,23,16,20,20,26,31,19,21,29,11,21,25,20,19,24,22,19,22,17,20,16,18,26,16,20,21,15,18,24,19,20,22,19,17,19,23,21,21,22,16,22,19,28,20,22,21,20,14,17,23,20,17,23,21,21,17,18,21,19,20,20,18,17,18,24,19,16,18,23,16,24,18,29,23,16,17,24,14,19,22,26,21,22,13,26,28,1e+08,31,35,29,45,28,29,44,25,35,25,43,33,40,28,33,26,27,16,27,31,26,23,28,40,40,29,23,29,28,38,27,34,37,31,31,17,36,24,36,28,27,30,31,27,44,30,25,31,15,36,40,32,31,30,40,34,36,23,26,25,36,36,36,30,28,24,25,29,24,21,29,26,37,27,43,27,28,28,39,32,28,36,29,41,44,27,26,29,19,40,27,37,30,30,42,29,37
24,20,24,29,32,27,23,19,22,26,28,20,26,22,22,29,12,26,19,27,29,21,23,27,27,30,33,21,10,31,32,9,22,31,27,30,23,34,24,26,28,21,24,25,27,16,22,31,32,24,25,27,26,28,31,24,27,29,18,28,20,13,28,18,27,28,30,30,25,34,34,31,30,27,21,28,25,37,27,28,25,24,29,18,23,25,25,27,17,25,22,27,23,30,26,22,23,24,33,21,33,33,31,1e+08,32,37,38,44,41,35,33,38,18,31,28,36,29,39,42,33,34,37,41,34,22,33,35,39,30,35,44,33,34,35,32,32,39,48,33,37,34,30,51,40,31,37,31,33,43,29,36,29,39,36,36,35,31,32,40,35,32,30,28,36,33,23,27,38,21,41,29,31,40,38,38,38,43,33,33,35,43,42,40,33,36,34,39,32,47,36,49,33,38,29,33,33,40,34,36,34
13,14,28,23,19,20,23,18,18,34,10,13,22,15,27,27,24,14,18,22,27,21,32,13,21,21,26,17,13,15,18,16,20,22,16,16,16,21,23,24,26,20,22,25,18,22,19,29,18,17,13,19,19,24,14,24,27,30,20,13,23,13,27,23,24,26,16,23,26,20,17,14,22,32,14,22,26,26,28,22,23,21,19,14,26,28,14,23,21,22,23,30,27,19,19,18,27,19,21,11,27,24,35,32,1e+08,29,44,29,35,34,25,32,18,34,31,33,29,30,32,31,21,27,22,23,24,25,32,29,25,24,30,28,33,28,34,39,22,35,28,34,27,25,37,27,28,34,25,35,29,31,34,21,25,34,30,28,26,34,32,34,24,27,20,44,34,31,28,22,29,31,33,28,37,34,28,36,34,42,27,27,33,28,33,31,37,28,31,35,33,21,30,31,35,24,26,34,31,40,26,34
22,26,19,20,24,23,22,18,24,15,37,21,23,28,18,17,22,29,20,24,26,18,21,27,20,24,19,21,19,30,26,23,34,20,21,30,25,26,19,25,27,32,26,24,21,24,35,21,23,29,33,31,27,35,27,19,27,27,18,32,25,18,21,25,22,25,28,34,28,25,30,28,20,26,34,21,27,24,33,26,21,24,25,33,21,20,39,23,18,17,27,22,29,26,22,28,27,23,25,22,42,43,29,37,29,1e+08,36,43,45,33,39,37,28,27,29,37,47,35,40,42,30,41,37,46,27,37,37,36,46,45,43,49,32,35,28,39,39,41,33,38,45,31,42,43,39,43,39,34,44,37,42,34,37,35,36,45,47,32,35,32,30,45,37,34,35,34,44,36,32,48,40,39,46,40,42,30,43,39,42,46,44,41,35,47,32,36,38,33,34,42,41,28,33,37,31,42,41,29,48,37
32,22,24,26,24,24,24,31,11,27,22,20,24,15,22,21,26,24,23,17,28,23,22,29,36,20,21,25,24,25,28,21,22,26,15,26,23,31,23,17,24,23,18,26,26,21,22,29,23,21,28,27,28,29,25,21,34,25,31,26,26,17,26,22,12,27,24,26,23,20,31,25,22,26,24,20,29,24,24,23,26,22,18,14,29,19,28,29,29,28,23,23,24,25,22,28,23,30,26,15,26,30,45,38,44,36,1e+08,29,36,31,24,32,25,39,32,36,29,42,34,29,21,26,29,28,21,27,42,33,27,25,31,33,33,28,31,42,30,36,20,39,25,43,34,31,29,32,30,51,33,27,28,19,37,47,30,31,31,38,41,39,19,25,26,33,38,36,32,37,25,30,33,28,32,34,29,33,29,40,33,29,33,42,34,33,35,28,39,41,31,27,35,23,36,24,35,32,30,40,31,36
21,20,21,18,25,22,22,20,18,23,26,17,27,25,19,24,14,22,19,23,21,16,16,22,21,23,22,17,14,21,22,17,20,27,27,22,23,22,23,22,21,23,22,21,20,27,23,26,30,26,23,27,19,26,33,22,25,24,19,28,28,17,28,23,21,23,24,24,29,26,29,32,26,28,31,27,24,27,23,23,24,19,24,21,30,23,20,24,17,27,28,21,25,28,22,29,21,19,28,23,35,37,28,44,29,43,29,1e+08,40,33,37,40,23,26,23,32,33,38,39,37,28,34,39,39,26,32,38,33,31,38,46,39,34,36,33,36,35,40,31,31,43,28,46,38,31,41,34,32,42,33,37,29,33,30,38,40,37,36,32,32,29,38,29,35,33,32,32,35,29,42,32,38,42,34,39,35,43,36,37,33,33,34,34,32,37,35,32,27,39,42,37,28,32,35,30,36,36,32,35,36
20,22,23,16,25,21,23,16,28,24,22,17,25,29,15,28,15,22,17,24,20,12,23,19,21,32,19,18,17,33,28,20,34,30,24,29,20,27,23,25,31,33,25,22,16,27,29,32,19,23,32,30,28,40,28,26,31,30,12,26,29,18,31,28,29,22,22,34,38,21,27,26,26,27,30,30,28,27,24,32,18,30,20,26,36,27,29,32,19,21,34,30,33,25,25,30,24,20,34,23,44,33,29,41,35,45,36,40,1e+08,29,45,35,26,25,24,30,43,39,41,42,32,51,36,44,30,37,36,29,41,41,42,40,28,41,35,38,38,42,37,32,42,26,43,40,40,41,41,33,42,44,44,36,31,37,35,48,43,30,38,33,28,45,31,35,31,31,42,33,30,51,47,44,45,41,43,36,46,33,43,37,49,32,33,37,35,36,36,27,30,41,39,32,26,33,28,48,40,33,52,33
22,26,22,29,32,38,28,35,14,25,24,24,20,13,13,17,22,24,23,20,30,19,20,30,26,12,24,24,15,23,25,23,25,27,17,19,18,27,21,19,23,22,18,25,27,24,18,27,31,22,26,23,22,17,28,24,19,23,30,26,28,16,25,18,18,33,23,20,23,23,27,30,16,28,25,23,23,18,23,18,32,20,20,21,26,14,26,20,25,32,14,15,28,17,19,26,26,31,22,17,26,31,44,35,34,33,31,33,29,1e+08,22,38,18,38,32,41,24,31,30,34,15,25,33,26,22,29,46,45,30,31,30,30,48,24,34,37,32,35,20,46,26,27,32,32,28,30,27,40,28,27,33,20,42,44,33,32,27,42,36,50,25,23,23,29,41,28,34,35,25,36,29,34,27,31,30,38,29,40,30,29,32,43,40,33,43,37,38,44,33,28,28,18,46,29,35,31,30,44,33,38
16,15,22,18,19,14,22,15,26,16,24,15,22,26,18,26,12,20,13,21,16,11,25,16,13,26,21,17,14,23,22,19,23,24,23,23,21,22,20,26,28,28,26,14,16,18,22,20,26,24,25,20,24,29,24,32,25,29,11,22,18,15,29,30,23,21,25,22,29,24,27,25,27,24,26,27,27,23,23,25,15,24,29,22,25,25,17,29,12,17,24,20,24,21,18,23,21,19,20,26,41,38,25,33,25,39,24,37,45,22,1e+08,34,23,17,21,28,35,31,35,41,36,45,37,37,25,35,33,28,37,37,37,40,26,37,32,31,36,36,32,29,39,28,38,39,34,34,37,28,43,39,41,34,28,29,33,42,39,21,31,27,30,41,32,33,25,29,36,33,35,43,37,36,41,45,39,34,39,28,36,38,43,28,30,34,24,28,30,24,33,37,36,30,26,33,24,45,39,24,38,31
21,22,24,28,26,27,22,18,17,25,28,19,25,19,18,25,16,25,19,21,23,21,22,24,23,26,23,17,20,23,27,18,29,29,22,25,21,26,23,25,26,22,26,23,29,17,16,24,27,25,23,25,23,27,26,25,25,29,20,31,26,18,29,23,19,26,25,28,26,24,26,24,22,25,23,25,27,24,27,22,23,25,24,20,28,22,22,23,17,25,20,25,23,22,23,20,23,24,27,21,29,37,35,38,32,37,32,40,35,38,34,1e+08,25,32,25,35,32,38,41,35,26,30,38,33,28,39,38,44,32,35,39,34,32,34,39,40,36,37,27,36,35,31,39,34,31,33,31,38,40,35,36,24,35,36,47,35,32,32,32,37,25,32,30,30,31,30,31,41,31,41,37,36,33,40,36,38,34,39,33,31,32,37,39,31,37,39,36,32,36,36,34,26,37,34,32,30,35,34,32,36
17,19,13,12,15,13,19,15,19,17,20,22,20,14,17,13,26,18,20,12,16,19,19,14,18,16,14,19,23,22,14,18,19,16,21,16,25,20,17,16,17,18,17,20,10,20,16,12,15,22,22,24,17,15,14,19,18,13,20,19,20,19,20,20,13,12,13,15,15,17,11,17,15,21,21,23,21,10,17,10,20,17,16,20,21,15,19,12,22,15,23,17,21,12,18,21,22,17,16,24,29,27,25,18,18,28,25,23,26,18,23,25,1e+08,28,20,28,29,25,26,26,24,26,26,30,23,27,27,22,24,30,25,29,21,22,24,24,28,20,23,22,29,31,24,27,27,27,28,30,25,26,23,22,17,21,23,25,28,28,27,20,18,33,29,20,27,25,29,24,26,24,26,25,26,22,30,21,25,31,25,28,25,16,26,28,22,28,21,25,22,28,20,19,22,25,26,27,23,20,29,27
24,22,21,26,19,26,21,30,8,26,14,27,23,14,18,20,32,23,27,18,29,27,23,27,25,16,15,26,24,18,17,17,14,16,20,19,18,23,23,17,16,16,17,25,19,23,16,15,14,16,13,17,16,20,13,18,21,16,27,11,27,24,18,13,17,15,23,16,12,18,15,17,17,25,17,22,16,18,14,17,27,13,21,15,24,16,17,17,25,24,20,19,17,18,26,18,27,28,20,15,23,29,43,31,34,27,39,26,25,38,17,32,28,1e+08,40,38,25,30,22,26,17,22,27,25,20,25,40,36,29,25,23,33,42,23,27,34,27,27,16,41,29,38,23,27,22,28,28,41,21,24,24,16,37,36,27,24,24,39,36,33,24,32,27,29,40,35,30,26,24,27,26,27,26,28,27,30,25,42,27,29,26,30,27,24,37,29,30,41,28,29,25,19,37,25,38,26,26,34,25,36
34,23,16,24,20,21,15,24,9,21,16,17,20,19,23,18,18,22,24,11,20,32,18,26,28,13,15,28,21,11,21,20,9,21,18,15,18,19,19,15,17,17,14,15,12,13,18,12,9,20,14,19,17,14,16,15,15,18,13,16,20,21,24,12,20,11,15,16,13,21,18,15,16,21,21,19,25,20,17,18,22,13,18,16,24,12,15,12,16,15,12,13,9,13,23,21,18,23,22,17,24,20,33,28,31,29,32,23,24,32,21,25,20,40,1e+08,29,21,25,23,23,14,21,27,24,22,18,35,27,27,27,26,28,30,19,26,32,30,25,15,31,25,28,22,25,23,25,21,31,28,19,22,14,30,39,24,23,26,37,28,29,18,23,22,31,30,38,23,30,20,25,26,20,24,25,22,23,23,36,21,27,24,34,22,22,36,29,29,36,26,25,22,16,33,25,35,22,24,38,21,27
17,26,19,26,27,21,26,25,12,24,25,25,27,17,20,23,23,20,19,18,30,20,21,26,29,15,19,25,17,19,26,20,17,23,22,20,24,25,21,20,18,18,19,26,29,24,20,20,22,19,18,18,19,21,17,23,19,19,24,18,22,18,21,20,18,21,22,15,21,24,25,24,16,22,19,20,22,22,22,14,28,18,21,21,20,20,22,22,23,19,19,20,16,17,21,20,19,22,20,20,32,35,40,36,33,37,36,32,30,41,28,35,28,38,29,1e+08,33,39,32,33,17,36,32,35,21,33,45,46,30,34,34,34,45,27,34,41,30,33,23,38,37,36,35,33,30,34,29,39,33,26,30,20,37,47,30,33,29,36,29,43,25,36,29,31,46,35,34,36,29,37,30,32,33,31,31,31,31,46,33,34,28,39,37,34,35,41,37,42,34,37,34,22,46,33,36,30,28,38,39,43
22,20,18,24,22,17,18,18,33,15,30,18,22,21,18,15,22,30,20,24,19,16,23,16,18,28,16,25,26,30,18,22,30,18,30,26,25,21,22,22,25,29,25,19,16,32,26,20,20,29,27,38,27,28,24,21,27,26,20,31,21,22,27,25,22,20,22,26,27,24,19,26,19,23,35,23,23,16,24,24,18,36,24,32,31,20,31,18,21,22,24,29,29,21,22,28,21,19,23,23,40,36,28,29,29,47,29,33,43,24,35,32,29,25,21,33,1e+08,32,32,33,27,39,33,49,23,37,38,31,39,44,43,42,26,35,28,31,34,31,28,33,42,30,41,38,39,42,38,29,33,44,40,38,30,31,31,45,41,30,36,27,27,44,33,32,36,33,40,29,31,43,36,34,37,39,48,32,38,31,47,46,42,26,32,46,29,34,42,27,33,42,31,26,30,34,32,38,38,23,44,32
31,32,17,26,30,22,27,24,15,27,25,29,28,20,12,25,17,23,22,18,29,16,20,25,25,18,22,26,15,31,28,18,28,34,24,30,25,29,26,26,24,25,30,24,29,26,31,34,23,33,28,19,26,30,29,24,29,31,20,24,21,23,30,28,26,27,25,33,31,31,30,28,27,26,24,31,33,31,32,28,28,17,23,31,27,24,27,23,19,24,24,25,21,30,31,26,20,30,32,20,32,31,33,39,30,35,42,38,39,31,31,38,25,30,25,39,32,1e+08,48,30,21,32,38,34,20,32,40,41,33,35,39,36,36,33,35,29,34,45,26,45,35,30,45,38,31,36,29,34,40,32,28,23,43,40,37,39,29,33,53,37,21,35,26,32,43,31,34,42,28,34,34,34,39,37,40,33,41,39,31,34,40,48,38,35,36,38,39,31,44,35,37,24,38,25,38,39,33,38,35,34
28,27,23,30,30,17,26,22,20,23,26,24,34,28,16,27,17,22,21,19,33,16,24,21,20,28,23,18,9,28,28,17,27,37,34,35,31,30,29,29,30,28,28,18,32,23,33,31,23,35,29,25,27,37,24,24,32,36,18,24,20,13,39,32,31,28,28,39,35,29,34,36,29,28,27,30,44,34,31,34,24,23,33,28,31,32,30,33,16,28,25,27,23,28,27,32,19,27,31,25,35,36,26,42,32,40,34,39,41,30,35,41,26,22,23,32,32,48,1e+08,39,32,42,46,28,21,30,29,36,28,35,41,34,32,34,33,32,35,54,37,31,37,31,52,38,27,35,27,26,48,29,31,29,34,30,38,36,34,27,39,29,26,29,20,34,34,29,35,38,27,37,30,33,47,35,39,38,45,35,38,31,41,47,36,39,28,37,34,25,50,41,42,35,26,26,33,41,36,27,40,30
19,21,18,15,22,17,19,14,19,16,18,20,22,26,14,20,20,18,18,22,16,15,16,18,14,20,25,13,11,17,23,19,25,21,23,22,20,27,17,27,22,21,20,20,16,21,26,22,19,20,17,18,31,28,19,21,23,26,14,19,19,18,20,25,23,21,20,26,24,23,20,22,27,18,25,22,21,21,20,22,14,20,18,19,25,24,23,30,14,17,23,20,21,18,17,21,21,18,20,20,43,35,27,33,31,42,29,37,42,34,41,35,26,26,23,33,33,30,39,1e+08,26,40,32,33,28,37,30,28,38,39,36,37,31,37,26,33,32,38,32,31,40,32,38,39,39,37,35,25,43,43,39,29,34,33,35,41,39,26,34,36,29,34,34,31,32,33,35,33,34,42,40,40,39,37,38,33,40,32,37,44,41,35,29,33,26,32,33,26,33,36,33,27,28,35,29,41,38,32,43,37
9,12,21,6,21,16,16,16,29,16,16,9,14,25,27,31,13,17,9,26,13,11,20,9,12,34,28,10,10,25,16,13,18,24,23,22,22,15,24,19,25,19,19,14,13,19,21,18,24,19,18,22,14,19,27,20,19,24,12,23,12,11,19,22,22,26,18,27,23,22,25,25,20,23,21,18,20,23,20,22,13,20,27,17,21,25,16,25,9,14,20,21,18,20,9,22,22,10,14,16,32,27,16,34,21,30,21,28,32,15,36,26,24,17,14,17,27,21,32,26,1e+08,35,31,33,22,29,18,23,23,29,31,29,17,28,28,25,30,29,48,20,28,17,35,33,29,30,28,16,35,29,24,39,17,19,25,31,30,18,18,22,41,24,24,29,19,17,28,24,22,33,30,28,32,29,32,27,34,24,31,27,30,20,22,32,18,22,23,17,22,27,30,45,17,26,19,28,31,21,32,27
17,22,20,16,25,12,21,16,24,16,22,21,22,26,21,23,17,25,16,19,17,11,25,18,17,29,21,16,15,30,23,24,26,22,23,29,26,16,20,20,25,31,28,17,15,25,32,27,17,24,29,29,27,31,24,30,27,34,17,24,17,19,21,30,30,20,22,31,32,23,22,25,26,30,25,25,18,28,27,30,18,32,26,30,23,25,24,19,15,21,32,32,26,17,22,32,18,20,19,29,43,36,27,37,27,41,26,34,51,25,45,30,26,22,21,36,39,32,42,40,35,1e+08,37,37,24,34,31,32,38,41,41,40,28,39,29,33,34,34,33,33,47,29,40,40,39,40,43,31,40,41,39,29,35,32,31,39,38,25,31,26,30,48,36,37,30,26,49,30,28,48,43,42,47,39,37,33,40,36,37,41,48,33,36,41,30,37,36,23,30,33,35,29,30,34,26,45,39,25,45,31
29,25,20,23,30,24,17,28,19,18,28,26,30,25,17,26,19,25,27,21,21,18,18,23,21,23,16,23,17,23,32,15,23,29,34,25,28,27,25,24,26,23,25,25,18,26,28,23,27,25,24,31,22,24,33,19,31,26,20,25,22,21,23,21,28,22,26,24,28,23,29,26,27,26,29,26,29,33,26,26,18,18,35,22,28,29,25,25,19,20,31,19,27,27,25,26,19,23,29,27,34,38,31,41,22,37,29,39,36,33,37,38,26,27,27,32,33,38,46,32,31,37,1e+08,38,24,37,36,34,34,38,43,36,31,29,35,33,44,39,31,33,38,31,40,39,37,38,31,39,41,28,34,27,38,37,33,38,32,35,38,33,26,35,29,28,37,33,36,45,29,37,34,35,37,38,38,35,44,34,33,40,37,46,36,33,34,41,37,32,38,42,39,26,30,29,33,34,36,33,38,36
16,22,17,14,18,18,18,19,22,16,26,16,23,26,21,21,14,22,18,26,18,16,18,16,20,24,16,19,11,23,22,20,22,21,23,23,27,17,16,25,23,26,21,17,21,23,26,15,23,28,27,30,24,24,25,23,23,21,13,24,19,20,22,19,25,22,25,24,29,22,26,28,19,23,29,22,20,17,28,23,23,21,21,25,22,20,28,18,17,22,25,21,25,22,20,25,24,15,19,29,37,35,26,34,23,46,28,39,44,26,37,33,30,25,24,35,49,34,28,33,33,37,38,1e+08,27,38,32,33,38,43,38,43,27,38,30,27,35,33,31,32,48,27,38,38,40,40,39,26,45,35,40,34,31,27,35,41,45,27,31,27,27,40,34,34,33,29,42,37,33,42,39,38,38,32,34,33,41,32,42,37,42,30,32,41,30,37,31,26,32,40,38,25,30,35,30,37,38,26,40,36
13,14,13,13,14,13,15,14,16,15,13,13,13,16,13,16,7,19,10,11,16,12,15,15,16,17,14,12,9,16,14,17,16,12,12,14,14,14,16,14,15,18,15,11,12,19,14,14,11,14,16,15,13,15,13,18,17,14,11,13,14,13,14,20,16,13,19,18,16,15,10,13,13,13,12,13,15,12,13,19,14,16,15,19,17,18,15,13,14,15,13,16,16,11,14,18,16,12,15,12,29,25,23,22,24,27,21,26,30,22,25,28,23,20,22,21,23,20,21,28,22,24,24,27,1e+08,28,19,18,24,24,21,29,26,29,24,24,25,27,24,23,27,20,24,27,25,24,30,19,29,27,31,25,21,26,29,26,27,20,17,25,22,24,24,23,21,21,24,25,27,29,34,26,24,25,20,24,24,22,27,26,25,18,24,23,23,23,21,18,22,24,23,23,21,25,23,30,24,26,27,23
16,18,17,20,18,21,18,16,22,18,22,18,22,22,19,19,15,26,17,18,20,16,26,17,16,23,12,19,15,22,22,15,24,20,31,24,22,22,18,25,21,23,18,19,18,21,22,19,20,19,26,25,27,22,22,21,22,22,15,27,17,16,24,22,23,20,23,18,23,22,21,26,17,26,28,20,21,23,24,18,18,24,24,21,24,21,29,18,16,16,24,20,20,23,18,21,21,19,20,22,36,37,28,33,25,37,27,32,37,29,35,39,27,25,18,33,37,32,30,37,29,34,37,38,28,1e+08,28,29,29,36,35,41,32,33,33,34,37,32,27,32,36,30,37,32,39,41,39,31,37,34,35,29,33,32,37,37,39,25,29,32,29,33,35,28,28,26,34,29,31,41,35,40,38,29,38,35,32,29,41,37,36,29,33,40,30,32,33,29,32,42,38,26,29,33,28,32,37,28,37,37
31,29,18,28,28,24,22,34,10,18,24,34,22,12,18,19,27,27,27,14,23,24,18,28,27,15,13,29,27,19,32,15,22,27,29,18,16,32,25,19,20,24,22,30,23,22,17,24,17,23,19,22,21,19,24,15,22,23,22,23,27,21,28,20,16,16,22,20,23,23,22,21,22,22,23,18,24,24,22,19,23,18,26,16,27,16,19,22,20,22,23,22,22,20,28,27,24,28,25,22,31,30,40,35,32,37,42,38,36,46,33,38,27,40,35,45,38,40,29,30,18,31,36,32,19,28,1e+08,44,33,31,38,33,43,28,31,36,37,36,20,38,32,33,38,34,31,30,31,45,31,31,30,19,43,42,32,32,31,44,40,38,21,34,28,30,51,38,28,31,31,39,30,32,28,35,42,30,31,43,28,36,34,44,38,31,40,40,33,49,38,33,28,19,40,28,40,34,30,38,33,38
20,21,20,28,29,31,23,29,11,23,27,16,26,18,12,25,19,27,25,21,26,26,22,21,29,9,24,21,11,26,29,18,26,27,17,20,19,29,21,23,15,25,20,26,44,21,21,26,28,23,19,21,18,20,26,24,25,25,25,18,22,15,22,16,18,30,26,21,18,27,32,28,22,19,26,17,22,28,24,24,31,25,22,21,32,19,25,22,22,31,19,16,29,25,20,21,25,23,27,22,29,32,40,39,29,36,33,33,29,45,28,44,22,36,27,46,31,41,36,28,23,32,34,33,18,29,44,1e+08,28,30,37,29,44,32,35,37,31,40,23,37,33,31,42,33,33,30,31,41,33,25,29,17,36,41,37,34,29,34,33,44,23,28,26,29,38,29,27,45,26,33,32,32,31,30,30,34,36,42,35,30,33,42,40,35,41,44,41,37,43,30,36,18,37,24,36,34,33,39,32,41
19,24,22,17,20,22,20,18,17,14,23,22,25,29,17,18,18,29,26,19,14,20,17,24,21,20,11,19,15,24,18,20,19,25,21,27,19,18,15,29,35,25,32,18,19,23,22,21,10,21,27,22,36,29,19,28,29,31,14,23,16,22,25,25,25,16,25,22,22,20,19,22,29,20,25,22,28,22,23,26,21,21,20,22,21,27,25,24,14,18,24,22,23,22,25,32,14,20,21,36,36,28,29,30,25,46,27,31,41,30,37,32,24,29,27,30,39,33,28,38,23,38,34,38,24,29,33,28,1e+08,34,36,41,32,35,21,32,32,35,23,31,32,34,31,35,36,33,34,32,35,42,40,32,37,31,29,36,34,33,31,31,21,41,34,33,38,33,40,33,28,39,42,33,34,53,36,23,30,30,33,38,41,34,30,33,34,27,49,28,31,34,29,19,32,32,35,41,38,27,38,33
21,15,13,18,23,20,20,21,24,13,19,19,22,28,20,21,26,21,22,20,16,19,22,18,22,21,14,19,18,22,20,21,25,24,33,26,23,24,17,21,23,31,27,21,19,28,24,19,22,28,31,25,23,20,30,24,23,24,18,35,20,23,18,28,23,20,28,23,24,25,20,26,17,20,26,25,16,23,27,29,23,27,25,29,19,22,31,15,17,17,20,30,28,18,24,30,21,20,22,26,38,35,23,35,24,45,25,38,41,31,37,35,30,25,27,34,44,35,35,39,29,41,38,43,24,36,31,30,34,1e+08,43,40,32,31,29,34,38,32,30,34,44,29,41,40,40,42,38,25,37,40,43,33,36,32,33,48,42,32,33,31,27,40,42,28,33,28,37,35,32,44,41,37,39,39,39,36,39,36,41,41,39,35,30,42,28,31,35,30,35,36,32,24,33,42,31,36,43,29,44,39
21,24,20,23,23,24,22,20,21,18,28,25,24,31,22,23,18,20,23,26,21,16,24,25,27,23,20,20,17,20,26,23,24,22,29,28,32,23,23,25,23,25,29,18,21,21,32,25,23,26,29,32,25,24,35,25,24,24,21,31,22,21,23,24,26,23,26,22,29,28,27,33,18,27,31,28,24,27,31,22,22,21,32,29,20,28,25,21,22,17,30,23,25,28,22,24,21,24,24,27,39,36,29,44,30,43,31,46,42,30,37,39,25,23,26,34,43,39,41,36,31,41,43,38,21,35,38,37,36,43,1e+08,35,34,28,31,33,44,46,33,37,38,30,47,47,38,44,35,37,40,32,34,30,34,32,34,37,35,35,37,30,26,40,34,34,34,33,35,40,31,40,32,35,41,38,51,34,44,36,36,40,41,38,36,38,33,39,41,28,42,43,38,29,31,30,35,37,36,33,40,32
23,26,19,20,23,24,19,17,25,17,28,24,22,26,16,20,15,31,27,21,16,19,24,25,17,29,16,14,17,32,25,22,32,19,25,26,22,22,19,27,26,29,26,17,19,27,25,26,16,26,29,28,31,34,21,26,31,30,15,28,19,24,27,32,20,18,24,32,33,26,22,28,16,24,32,23,26,20,27,25,24,32,26,28,27,22,31,27,19,20,32,29,23,26,27,25,27,28,24,31,45,34,28,33,28,49,33,39,40,30,40,34,29,33,28,34,42,36,34,37,29,40,36,43,29,41,33,29,41,40,35,1e+08,31,39,30,32,41,37,26,39,47,31,38,38,47,36,35,34,41,43,40,32,39,33,35,44,45,31,33,28,24,45,38,28,36,29,46,35,30,49,36,39,45,38,42,29,39,30,48,42,45,33,31,41,30,33,42,30,32,41,36,28,30,33,33,42,41,28,47,33
21,19,19,25,27,30,25,27,11,19,25,23,24,13,13,15,18,22,26,12,28,22,19,26,21,10,20,21,18,17,24,19,23,19,20,18,17,34,22,15,15,17,20,25,30,24,19,26,29,19,19,17,22,19,24,25,22,21,27,26,21,13,28,17,18,24,25,20,20,21,24,25,23,28,21,18,24,22,21,20,26,23,22,18,24,14,19,22,16,25,21,15,18,25,15,28,25,29,21,19,28,31,38,34,33,32,33,34,28,48,26,32,21,42,30,45,26,36,32,31,17,28,31,27,26,32,43,44,32,32,34,31,1e+08,26,33,36,31,35,19,43,30,35,27,29,30,31,25,41,36,26,32,18,40,46,31,32,27,37,38,47,25,28,28,29,46,34,27,40,26,32,33,34,32,29,34,32,27,39,32,29,34,43,36,32,43,37,37,41,41,33,34,19,43,29,35,31,34,44,31,38
14,17,18,19,23,16,21,16,28,18,25,14,21,29,18,18,10,21,15,23,18,16,21,13,15,31,17,14,14,29,19,18,23,17,21,35,23,20,20,18,23,26,20,18,17,20,24,20,18,17,23,21,28,31,20,16,27,27,12,24,17,17,24,26,25,25,30,28,28,23,26,20,19,26,24,20,17,21,31,26,16,23,16,20,24,19,27,15,17,22,25,27,23,29,21,25,24,17,22,22,41,35,27,35,28,35,28,36,41,24,37,34,22,23,19,27,35,33,34,37,28,39,29,38,29,33,28,32,35,31,28,39,26,1e+08,26,28,28,30,28,29,37,29,35,31,34,32,39,23,38,39,39,38,27,27,38,38,41,22,28,27,33,31,28,32,24,26,39,26,28,40,39,35,36,38,30,32,41,31,35,31,40,25,33,33,27,32,31,23,33,31,39,29,26,31,24,36,36,24,39,30
14,19,29,22,18,17,24,25,17,26,19,19,21,17,20,22,15,17,17,19,25,15,20,12,25,21,27,20,14,26,22,19,28,21,19,27,16,24,22,24,24,20,24,22,17,24,18,23,22,21,21,24,23,22,23,22,24,25,25,20,25,17,24,23,18,21,19,22,24,25,20,21,16,26,17,25,24,22,21,21,20,20,24,18,28,18,17,23,24,26,22,23,29,21,23,23,23,22,27,13,26,30,34,32,34,28,31,33,35,34,32,39,24,27,26,34,28,35,33,26,28,29,35,30,24,33,31,35,21,29,31,30,33,26,1e+08,38,29,33,29,31,27,28,35,30,34,33,31,33,31,25,30,24,29,36,36,34,29,35,30,36,34,28,26,30,27,30,29,40,27,32,33,35,30,31,26,42,31,36,31,29,29,31,39,33,34,35,31,35,29,34,35,29,38,30,25,35,27,41,30,32
20,21,29,25,25,18,21,23,17,21,14,22,19,15,21,22,23,20,20,17,20,17,25,23,17,20,19,25,15,21,25,21,26,20,18,22,15,26,19,16,20,23,12,23,16,23,20,21,20,17,19,25,22,25,23,19,26,24,22,21,29,15,19,23,22,23,22,20,26,21,24,22,18,28,22,22,20,22,21,23,21,16,21,17,22,18,23,21,21,15,24,20,27,17,15,22,22,22,23,16,27,36,37,32,39,39,42,36,38,37,31,40,24,34,32,41,31,29,32,33,25,33,33,27,24,34,36,37,32,34,33,32,36,28,38,1e+08,31,34,25,36,34,33,36,36,36,34,32,37,31,33,28,26,33,38,33,33,28,36,31,37,26,34,33,34,32,33,33,36,28,35,33,33,31,35,33,38,36,38,34,36,29,34,32,32,36,31,35,35,32,32,32,31,40,34,27,38,30,46,32,39
24,27,20,24,26,22,18,22,20,20,23,19,28,23,22,20,25,18,29,19,19,22,27,25,21,23,17,26,18,23,29,22,19,38,32,24,18,26,20,28,22,28,29,23,23,19,22,21,18,30,25,21,24,24,22,27,31,21,12,23,25,18,31,20,23,22,23,23,28,24,23,22,24,25,25,30,35,30,18,19,24,22,34,23,27,20,24,27,22,19,25,24,22,18,26,26,20,19,25,25,37,29,31,39,22,39,30,35,38,32,36,36,28,27,30,30,34,34,35,32,30,34,44,35,25,37,37,31,32,38,44,41,31,28,29,31,1e+08,35,26,33,34,32,38,38,36,35,36,32,38,31,34,27,33,31,35,39,38,37,33,31,24,32,34,29,37,36,38,39,30,40,36,38,35,36,40,32,34,34,33,37,32,36,36,34,30,39,32,37,39,42,32,26,30,31,37,37,36,34,35,33
25,24,24,25,25,25,26,21,16,18,21,21,28,23,18,30,15,21,18,19,30,16,27,23,23,25,21,16,11,23,27,17,23,28,22,36,25,26,27,27,27,23,32,22,33,20,23,42,24,31,29,22,28,30,32,28,30,37,18,25,22,12,35,28,25,32,29,37,32,34,29,29,31,26,24,24,34,39,27,26,23,24,29,24,27,30,29,28,14,26,22,33,23,30,21,26,22,25,31,21,34,31,31,48,35,41,36,40,42,35,36,37,20,27,25,33,31,45,54,38,29,34,39,33,27,32,36,40,35,32,46,37,35,30,33,34,35,1e+08,33,37,39,32,51,39,31,32,28,35,45,29,31,23,37,32,38,39,31,32,41,37,25,33,27,32,39,33,31,41,24,37,32,38,47,40,37,36,45,34,38,30,39,45,41,37,32,39,44,33,50,42,41,32,32,27,33,39,35,32,40,34
12,12,28,12,24,13,19,8,23,18,17,9,20,24,28,36,10,17,9,25,22,9,35,10,11,27,30,11,7,28,21,12,18,23,22,32,23,16,20,21,25,20,20,15,10,18,23,28,22,22,19,27,22,28,22,20,25,23,11,24,14,9,26,22,25,30,18,32,32,29,20,27,22,27,22,20,19,37,30,23,13,23,23,17,25,27,20,24,14,18,22,26,22,23,15,21,22,12,23,18,30,25,17,33,28,33,20,31,37,20,32,27,23,16,15,23,28,26,37,32,48,33,31,31,24,27,20,23,23,30,33,26,19,28,29,25,26,33,1e+08,18,34,18,44,35,27,32,26,15,34,24,26,33,18,18,25,36,31,16,24,21,33,28,20,28,19,16,25,25,23,35,29,30,41,31,31,31,38,23,35,31,29,18,24,32,18,25,24,18,26,32,40,45,19,27,18,34,35,20,38,25
28,27,18,27,25,27,27,26,13,21,20,25,28,16,17,25,19,24,24,19,23,19,21,31,30,17,19,25,12,22,21,20,23,28,19,19,23,28,26,23,17,31,23,26,24,25,16,24,24,25,27,25,20,23,23,21,21,29,28,22,23,22,20,27,17,26,25,22,17,21,24,23,18,20,25,24,25,24,21,28,27,21,22,24,22,25,21,19,24,25,18,26,22,20,26,24,29,31,24,18,30,32,36,37,34,38,39,31,32,46,29,36,22,41,31,38,33,45,31,31,20,33,33,32,23,32,38,37,31,34,37,39,43,29,31,36,33,37,18,1e+08,36,32,36,30,33,29,33,39,33,29,34,21,49,44,33,33,31,41,40,44,29,41,26,33,41,35,30,35,29,39,32,29,34,36,31,37,34,40,37,37,36,37,46,31,46,34,41,40,39,29,33,21,49,33,38,33,37,40,30,40
17,24,16,13,16,20,18,15,21,19,25,19,20,27,17,19,17,23,22,22,26,15,18,17,21,26,17,14,9,26,19,21,31,23,18,22,25,17,16,27,26,27,29,20,18,28,27,22,18,25,27,24,25,29,19,24,26,31,16,23,21,22,22,30,30,26,21,27,26,24,22,25,23,28,28,26,21,21,26,29,16,21,20,29,22,22,25,23,18,21,26,28,24,22,23,27,26,22,22,24,44,37,24,34,27,45,25,43,42,26,39,35,29,29,25,37,42,35,37,40,28,47,38,48,27,36,32,33,32,44,38,47,30,37,27,34,34,39,34,36,1e+08,21,46,39,40,36,38,26,41,35,42,34,36,29,39,46,43,29,39,29,25,44,33,28,34,27,44,34,30,46,38,44,40,35,38,30,42,36,47,44,49,38,36,39,27,36,35,26,36,44,36,26,29,35,32,39,40,27,41,38
26,17,22,25,24,21,21,35,15,26,20,22,29,23,17,21,32,21,23,14,21,26,26,21,28,13,13,28,30,19,18,19,14,24,22,22,21,24,19,18,15,21,16,26,22,21,16,21,17,18,18,22,18,22,18,20,24,14,28,18,19,20,19,12,12,13,23,17,16,16,18,18,21,20,20,17,21,22,14,17,19,16,20,15,24,21,22,22,25,23,22,17,15,20,17,23,19,21,22,25,28,29,36,30,25,31,43,28,26,27,28,31,31,38,28,36,30,30,31,32,17,29,31,27,20,30,33,31,34,29,30,31,35,29,28,33,32,32,18,32,21,1e+08,29,28,32,28,28,42,28,25,29,20,35,37,29,28,30,32,32,29,20,30,32,31,38,36,30,32,26,28,28,28,25,28,25,27,27,32,30,32,31,29,31,30,34,33,37,34,32,26,26,21,34,26,35,27,29,36,31,33
19,21,25,23,30,20,20,17,23,20,26,19,26,26,28,31,13,23,20,26,24,13,28,20,22,25,28,18,9,35,27,16,25,30,29,33,29,27,22,26,30,24,24,21,21,21,28,27,29,26,27,34,25,32,30,23,34,29,17,30,23,13,29,27,29,28,26,30,33,38,26,30,27,30,32,25,28,33,32,26,20,24,28,23,29,30,27,27,16,22,25,27,27,26,23,29,29,20,29,22,42,34,28,51,37,42,34,46,43,32,38,39,24,23,22,35,41,45,52,38,35,40,40,38,24,37,38,42,31,41,47,38,27,35,35,36,38,51,44,36,46,29,1e+08,45,40,43,33,33,48,34,36,36,35,36,43,46,38,28,37,34,34,34,31,39,35,26,37,40,26,39,38,37,52,42,44,42,52,36,39,38,42,44,37,38,31,36,35,29,45,40,49,34,31,30,33,40,41,30,44,37
20,25,20,17,29,21,26,15,19,17,23,21,23,26,20,15,19,21,22,18,22,14,21,23,16,21,19,21,15,24,25,17,26,22,24,28,30,27,18,20,25,30,26,16,18,20,32,17,14,28,27,27,27,30,28,20,23,23,17,29,29,22,18,25,28,20,25,22,31,29,26,29,19,27,24,30,19,24,30,22,22,19,26,27,21,21,27,20,16,16,27,29,26,18,19,26,19,27,21,27,38,32,27,40,27,43,31,38,40,32,39,34,27,27,25,33,38,38,38,39,33,40,39,38,27,32,34,33,35,40,47,38,29,31,30,36,38,39,35,30,39,28,45,1e+08,33,39,33,27,38,30,33,33,32,29,31,47,36,34,34,30,29,35,27,27,37,32,40,33,30,46,38,38,41,41,41,34,46,37,38,36,40,38,30,35,27,35,30,27,37,41,37,33,27,27,32,45,35,30,44,30
22,18,16,19,18,20,13,16,18,18,21,21,22,23,15,21,18,20,16,19,15,16,20,20,24,23,18,17,12,22,22,21,27,20,25,21,21,25,19,27,21,27,21,26,15,27,20,25,20,19,25,25,30,24,26,24,27,25,18,22,16,19,17,27,23,20,18,26,24,25,22,24,20,22,25,20,18,26,23,26,19,27,14,24,20,25,27,18,17,20,27,22,28,21,21,27,23,17,19,25,38,33,30,31,28,39,29,31,40,28,34,31,27,22,23,30,39,31,27,39,29,39,37,40,25,39,31,33,36,40,38,47,30,34,34,36,36,31,27,33,40,32,40,33,1e+08,42,39,33,34,38,38,30,30,35,33,48,41,32,36,31,26,45,37,28,31,33,43,32,31,41,34,39,36,36,35,36,35,31,41,40,45,33,33,38,33,31,40,29,29,35,30,23,30,38,27,41,37,33,39,34
14,21,19,22,27,19,23,15,22,27,27,17,23,23,21,22,16,22,18,28,24,20,19,15,17,22,24,16,16,26,23,17,22,19,26,25,27,23,19,26,26,22,19,23,15,21,27,24,31,28,27,33,28,26,27,20,22,26,17,29,26,12,26,25,19,25,17,20,25,29,23,26,25,26,34,23,25,21,26,22,17,21,20,18,28,23,25,21,18,26,25,26,21,25,24,27,23,18,26,20,42,42,31,37,34,43,32,41,41,30,34,33,27,28,25,34,42,36,35,37,30,40,38,40,24,41,30,30,33,42,44,36,31,32,33,34,35,32,32,29,36,28,43,39,42,1e+08,38,35,42,35,41,31,34,35,35,43,45,30,37,33,25,38,30,35,32,27,39,40,30,42,37,39,47,33,38,33,41,36,39,38,42,36,37,42,34,33,34,31,35,39,38,32,30,36,29,41,38,33,42,39
13,17,13,19,18,16,16,20,22,17,17,18,18,24,18,13,18,25,17,15,22,11,17,18,19,22,16,15,16,20,21,23,23,16,19,20,17,17,19,17,19,29,23,19,14,23,25,16,16,23,25,23,29,24,21,24,24,24,19,23,21,17,19,21,22,19,19,24,24,18,19,24,24,22,21,19,16,14,15,22,17,21,14,24,20,23,30,20,15,15,20,24,23,14,19,23,22,17,17,19,41,35,27,31,25,39,30,34,41,27,37,31,28,28,21,29,38,29,27,35,28,43,31,39,30,39,31,31,34,38,35,35,25,39,31,32,36,28,26,33,38,28,33,33,39,38,1e+08,28,32,37,38,30,31,30,31,40,41,26,33,29,23,41,34,31,29,29,42,31,36,40,42,43,32,36,37,28,30,31,35,39,40,30,31,38,30,29,33,27,29,34,28,23,25,39,30,38,37,29,37,34
26,27,23,28,32,27,30,31,12,26,30,29,22,11,13,22,20,25,25,14,24,36,20,32,33,13,20,30,30,16,29,25,24,20,18,22,30,26,25,17,22,21,23,35,20,23,17,25,30,17,21,28,20,16,27,20,22,22,36,30,15,21,27,21,14,16,18,24,24,27,24,27,15,23,24,15,18,18,25,18,27,27,23,17,26,11,21,20,24,27,19,13,26,17,16,19,26,29,31,18,28,30,44,33,35,34,51,32,33,40,28,38,30,41,31,39,29,34,26,25,16,31,39,26,19,31,45,41,32,25,37,34,41,23,33,37,32,35,15,39,26,42,33,27,33,35,28,1e+08,30,27,31,18,41,50,32,24,28,42,37,38,16,30,29,34,40,36,29,41,24,33,28,31,28,36,32,30,25,39,35,28,34,40,40,33,41,32,41,46,38,32,32,17,40,27,38,30,30,41,27,43
19,20,26,23,23,17,21,19,27,23,27,18,23,20,17,25,15,19,20,26,23,17,28,19,18,21,20,13,14,27,22,24,25,22,25,26,33,18,22,25,23,27,25,17,20,21,28,30,25,27,25,32,23,26,31,25,25,28,20,25,21,18,28,27,27,26,26,24,31,26,27,30,28,27,31,26,26,27,26,26,19,22,25,25,30,29,27,27,13,21,30,21,23,28,19,27,18,23,24,23,39,38,30,43,29,44,33,42,42,28,43,40,25,21,28,33,33,40,48,43,35,40,41,45,29,37,31,33,35,37,40,41,36,38,31,31,38,45,34,33,41,28,48,38,34,42,32,30,1e+08,36,36,36,32,34,39,44,40,27,30,28,29,40,30,36,36,31,35,36,27,42,39,38,49,40,37,31,46,34,39,35,45,38,36,43,30,38,35,25,38,46,41,34,31,35,30,40,38,31,39,39
17,17,20,17,21,16,18,14,23,20,19,18,21,24,17,16,18,23,16,19,15,15,15,16,12,26,16,13,15,23,12,18,24,22,24,19,20,23,17,27,32,25,27,22,15,22,18,16,21,22,23,23,27,27,21,27,27,25,11,22,20,19,22,25,22,21,16,23,29,23,16,15,24,21,21,22,22,16,22,23,15,22,19,18,19,21,16,19,17,15,21,26,24,17,20,25,19,15,20,29,40,30,25,29,31,37,27,33,44,27,39,35,26,24,19,26,44,32,29,43,29,41,28,35,27,34,31,25,42,40,32,43,26,39,25,33,31,29,24,29,35,25,34,30,38,35,37,27,36,1e+08,41,35,28,28,34,38,35,24,34,25,26,39,33,31,33,25,40,28,28,42,49,36,37,48,36,32,39,37,36,39,46,25,28,31,26,33,34,26,30,33,29,32,28,36,28,38,42,28,40,34
15,15,20,23,22,24,24,18,24,20,24,17,28,28,15,21,20,24,14,25,24,19,23,23,20,16,20,13,15,22,20,25,26,24,24,23,23,23,20,24,28,36,29,25,20,23,23,22,23,27,21,27,31,29,22,34,32,28,19,28,22,18,24,27,20,28,24,23,26,23,21,14,30,20,19,22,19,19,24,32,21,24,19,24,22,25,25,22,17,28,23,35,35,19,25,33,19,20,25,24,42,31,31,36,34,42,28,37,44,33,41,36,23,24,22,30,40,28,31,39,24,39,34,40,31,35,30,29,40,43,34,40,32,39,30,28,34,31,26,34,42,29,36,33,38,41,38,31,36,41,1e+08,31,29,33,35,40,40,29,34,31,25,43,32,26,28,29,43,38,33,38,43,43,34,44,31,30,36,31,37,41,48,32,33,39,37,35,43,29,32,33,37,23,33,36,29,43,38,34,41,36
12,12,16,14,20,16,13,12,33,13,28,12,14,36,23,20,11,26,10,35,11,9,13,10,10,35,15,13,8,31,15,16,24,16,28,26,21,14,13,19,29,23,17,13,9,22,30,18,21,18,27,25,20,22,25,14,19,21,15,27,11,16,14,20,23,24,22,25,23,23,27,26,15,26,26,17,15,19,27,22,10,21,17,24,16,18,27,16,9,14,23,18,22,32,10,27,21,10,14,17,29,33,15,29,21,34,19,29,36,20,34,24,22,16,14,20,38,23,29,29,39,29,27,34,25,29,19,17,32,33,30,32,18,38,24,26,27,23,33,21,34,20,36,33,30,31,30,18,36,35,31,1e+08,20,19,26,34,35,19,22,16,35,34,29,32,18,18,32,21,23,32,35,29,40,37,30,29,38,25,37,36,37,21,19,38,18,21,27,16,25,34,36,40,18,24,22,31,39,18,40,28
29,34,16,25,27,23,20,27,9,20,23,39,29,22,12,20,18,21,28,11,24,20,14,33,25,20,11,24,15,18,26,14,21,28,23,21,18,22,20,21,21,22,28,28,28,24,20,26,19,23,24,22,25,19,19,23,23,23,25,22,18,31,27,20,24,17,30,27,24,24,22,24,19,17,27,23,26,27,29,19,24,22,31,20,20,20,21,24,21,24,12,21,20,20,27,22,23,32,25,26,29,36,36,39,25,37,37,33,31,42,28,35,17,37,30,37,30,43,34,34,17,35,38,31,21,33,43,36,37,36,34,39,40,27,29,33,33,37,18,49,36,35,35,32,30,34,31,41,32,28,29,20,1e+08,40,31,36,29,43,38,42,19,34,29,29,46,35,38,36,28,39,31,33,36,28,34,24,31,34,33,37,35,46,38,28,37,36,42,39,42,37,28,17,42,32,44,32,36,38,33,39
23,22,22,25,25,25,24,27,14,23,22,27,21,13,13,17,23,23,20,12,27,15,16,29,28,15,21,29,25,18,20,25,25,23,19,20,18,29,21,17,14,21,14,23,22,22,18,22,23,21,21,23,20,24,24,18,19,20,26,25,24,18,24,19,20,21,19,18,23,29,26,24,15,22,30,23,18,24,19,16,21,20,22,17,23,16,24,17,25,22,18,15,19,19,22,22,23,29,27,14,30,35,40,36,34,35,47,30,37,44,29,36,21,36,39,47,31,40,30,33,19,32,37,27,26,32,42,41,31,32,32,33,46,27,36,38,31,32,18,44,29,37,36,29,35,35,30,50,34,28,33,19,40,1e+08,33,36,30,45,33,49,28,29,25,34,39,38,32,42,22,36,33,28,32,30,29,36,31,42,32,33,37,42,41,32,50,36,39,40,32,31,34,23,45,30,38,35,31,51,33,37
24,19,20,25,25,15,25,16,15,21,23,23,29,20,17,24,17,17,16,21,25,21,24,18,21,14,26,16,16,20,21,14,21,27,23,21,21,23,26,23,20,23,23,24,25,22,22,20,23,26,18,21,24,28,20,24,22,24,19,19,19,19,27,22,22,23,23,25,21,26,22,19,25,20,20,24,23,21,26,28,19,18,23,20,27,25,24,22,16,27,20,22,23,18,24,22,21,22,22,21,30,31,32,36,30,36,30,38,35,33,33,47,23,27,24,30,31,37,38,35,25,31,33,35,29,37,32,37,29,33,34,35,31,38,36,33,35,38,25,33,39,29,43,31,33,35,31,32,39,34,35,26,31,33,1e+08,33,30,28,39,29,30,32,25,27,30,27,32,39,31,38,36,35,35,32,29,29,36,32,30,30,33,38,35,27,31,36,34,26,41,31,34,25,31,33,29,35,31,32,33,32
17,16,17,19,19,18,18,16,29,20,24,19,23,28,21,22,19,26,20,26,24,14,18,19,23,32,19,13,9,31,27,23,32,27,26,27,21,21,21,28,28,30,27,22,17,25,34,21,23,23,30,30,28,31,33,25,25,28,13,26,26,18,23,26,27,35,21,31,32,27,30,25,30,29,28,25,21,24,30,31,17,23,18,25,25,25,33,20,15,21,30,27,34,29,23,29,25,18,22,26,45,37,31,35,28,45,31,40,48,32,42,35,25,24,23,33,45,39,36,41,31,39,38,41,26,37,32,34,36,48,37,44,32,38,34,33,39,39,36,33,46,28,46,47,48,43,40,24,44,38,40,34,36,36,33,1e+08,43,29,38,31,30,40,32,39,34,26,46,37,28,46,42,42,48,41,39,37,41,32,44,45,49,35,33,42,29,33,37,26,38,43,42,28,28,35,31,47,37,33,48,37
13,18,19,17,17,15,17,17,26,21,27,15,23,26,14,18,17,23,17,19,18,14,16,22,21,27,15,16,13,31,16,26,27,19,21,24,23,20,18,21,24,28,20,18,14,28,23,17,19,25,30,27,22,26,21,23,23,23,18,26,21,19,23,28,20,24,26,27,31,21,23,20,19,21,24,20,19,18,24,28,17,26,16,26,27,22,23,21,19,19,28,24,26,27,18,29,22,20,24,20,48,40,30,31,26,47,31,37,43,27,39,32,28,24,26,29,41,29,34,39,30,38,32,45,27,39,31,29,34,42,35,45,27,41,29,28,38,31,31,31,43,30,38,36,41,45,41,28,40,35,40,35,29,30,30,43,1e+08,29,30,28,32,38,34,30,31,29,43,32,32,44,39,33,40,35,36,31,37,32,38,42,38,32,32,41,26,35,30,33,27,38,34,25,29,35,27,40,34,25,41,33
32,26,20,27,25,30,24,37,12,17,15,31,27,16,21,18,26,19,28,16,19,24,18,27,26,12,15,34,22,13,21,18,22,23,20,19,15,25,16,20,20,21,21,17,19,26,15,18,12,21,16,19,21,19,14,21,17,16,24,16,23,32,19,14,18,14,26,15,17,16,16,20,21,19,15,26,21,14,17,21,28,19,26,15,15,17,17,22,22,24,22,22,22,15,27,19,16,31,20,24,26,24,40,32,34,32,38,36,30,42,21,32,28,39,37,36,30,33,27,26,18,25,35,27,20,25,44,34,33,32,35,31,37,22,35,36,37,32,16,41,29,32,28,34,32,30,26,42,27,24,29,19,43,45,28,29,29,1e+08,36,39,24,33,29,33,47,39,31,34,28,35,29,29,28,33,34,32,28,41,29,28,26,39,31,31,41,32,38,44,38,32,26,24,44,26,44,27,27,45,30,34
34,25,18,27,21,15,21,29,15,22,17,27,32,16,15,25,25,24,26,19,31,24,24,28,21,22,24,23,22,26,27,19,25,26,24,27,22,30,28,31,25,23,30,28,23,29,22,30,22,28,29,27,32,30,28,22,26,32,20,17,26,25,29,24,19,21,22,30,23,28,28,31,27,24,27,27,28,27,24,31,26,19,22,22,25,25,30,19,19,28,26,31,22,20,39,23,23,28,27,21,32,31,34,40,32,35,41,32,38,36,31,32,27,36,28,29,36,53,39,34,18,31,38,31,17,29,40,33,31,33,37,33,38,28,30,31,33,41,24,40,39,32,37,34,36,37,33,37,30,34,34,22,38,33,39,38,30,36,1e+08,32,21,34,25,27,37,30,33,41,26,36,32,30,35,35,39,36,35,35,32,40,40,40,39,34,29,35,37,39,39,33,30,25,35,28,37,37,34,34,35,37
17,24,18,21,27,28,31,27,13,29,20,17,25,17,14,17,19,22,23,19,28,20,18,30,28,13,22,29,17,17,25,17,21,25,19,21,20,30,22,20,13,25,19,24,32,22,23,29,22,23,25,16,14,25,23,22,16,21,22,27,22,13,18,19,22,26,21,16,24,25,26,26,18,23,23,25,20,22,21,23,30,24,19,16,23,16,28,18,21,26,15,18,21,19,21,17,28,22,25,18,25,35,36,35,34,32,39,32,33,50,27,37,20,33,29,43,27,37,29,36,22,26,33,27,25,32,38,44,31,31,30,28,47,27,36,37,31,37,21,44,29,29,34,30,31,33,29,38,28,25,31,16,42,49,29,31,28,39,32,1e+08,29,27,25,32,39,34,27,37,24,35,34,37,27,30,31,39,31,37,30,30,31,37,37,29,50,39,34,43,35,27,35,24,52,31,35,28,33,48,33,34
12,13,20,15,16,18,23,17,27,18,21,17,21,26,23,27,8,23,13,31,21,13,19,9,13,20,31,16,9,23,16,12,17,20,16,22,22,19,25,21,21,17,16,19,13,19,19,21,20,18,17,18,18,21,17,18,18,17,14,17,20,14,16,17,22,26,16,25,19,21,18,20,21,17,21,18,15,22,21,24,15,18,14,16,20,18,22,19,18,18,19,22,20,22,19,17,20,15,17,8,26,31,23,32,24,30,19,29,28,25,30,25,18,24,18,25,27,21,26,29,41,30,26,27,22,29,21,23,21,27,26,24,25,33,34,26,24,25,33,29,25,20,34,29,26,25,23,16,29,26,25,35,19,28,30,30,32,24,21,29,1e+08,22,22,23,23,18,23,22,23,27,22,27,28,24,22,33,27,33,24,21,28,18,29,29,27,24,19,24,25,25,31,47,28,25,15,27,28,30,29,26
28,23,21,17,18,15,16,17,23,20,25,22,25,20,16,17,24,25,23,15,19,15,20,20,20,26,15,18,23,30,21,29,34,19,23,20,19,18,16,21,27,31,26,19,12,29,21,23,14,22,28,24,31,31,20,28,40,31,13,20,20,28,24,31,25,16,22,28,31,21,16,19,24,25,25,21,22,17,14,31,17,25,21,29,25,23,24,22,23,19,30,35,29,17,22,27,19,18,18,36,47,36,26,30,27,45,25,38,45,23,41,32,33,32,23,36,44,35,29,34,24,48,35,40,24,33,34,28,41,40,40,45,28,31,28,34,32,33,28,41,44,30,34,35,45,38,41,30,40,39,43,34,34,29,32,40,38,33,34,27,22,1e+08,33,25,37,34,48,32,31,40,36,35,37,41,37,27,36,35,45,41,45,32,32,38,31,31,41,30,32,41,30,26,36,34,30,46,37,28,41,35
16,17,17,20,17,16,20,19,17,16,20,14,15,23,17,11,23,26,20,18,14,23,23,16,18,18,11,20,22,20,17,22,20,18,20,23,15,20,19,20,17,23,18,21,14,21,25,17,19,17,25,29,20,19,17,25,19,21,17,23,13,12,17,18,16,19,20,22,17,20,17,23,19,21,25,16,17,21,21,22,19,22,23,26,22,18,28,17,18,17,20,15,18,17,22,21,18,18,20,21,29,30,25,28,20,37,26,29,31,23,32,30,29,27,22,29,33,26,20,34,24,36,29,34,24,35,28,26,34,42,34,38,28,28,26,33,34,27,20,26,33,32,31,27,37,30,34,29,30,33,32,29,29,25,25,32,34,29,25,25,22,33,1e+08,29,27,30,34,29,23,37,34,32,32,33,33,21,27,27,33,31,28,28,24,33,26,29,31,25,27,30,30,22,31,34,29,27,38,27,37,31
18,17,17,22,18,21,26,23,23,23,23,17,19,23,30,26,17,25,16,28,21,22,27,18,24,30,17,20,12,29,24,20,18,20,27,30,18,18,20,21,24,16,21,20,19,15,27,24,24,14,24,23,19,21,25,18,26,30,22,23,16,15,18,19,20,31,23,26,26,26,32,25,22,34,26,20,18,25,30,25,19,23,16,16,18,20,24,21,16,24,22,20,22,31,15,17,25,25,18,18,33,26,36,36,44,34,33,35,35,29,33,30,20,29,31,31,32,32,34,31,29,37,28,34,23,28,30,29,33,28,34,28,29,32,30,34,29,32,28,33,28,31,39,27,28,35,31,34,36,31,26,32,29,34,27,39,30,33,27,32,23,25,29,1e+08,34,33,26,24,25,32,32,31,39,36,37,39,40,29,29,29,38,30,34,30,37,26,35,33,32,33,38,29,33,29,36,28,35,35,30,35
27,31,16,24,22,31,22,24,11,19,21,36,28,15,17,19,27,20,31,14,20,22,21,31,18,17,13,24,18,15,23,18,25,24,30,20,25,27,18,26,21,26,31,20,24,24,23,20,13,29,20,18,29,22,22,22,23,18,20,17,25,20,20,20,19,14,29,21,22,25,21,23,20,24,22,25,27,19,20,17,21,20,24,23,17,21,24,23,23,16,21,23,19,14,24,20,18,26,19,32,33,28,36,33,34,35,38,33,31,41,25,31,27,40,30,46,36,43,34,32,19,30,37,33,21,28,51,38,38,33,34,36,46,24,27,32,37,39,19,41,34,38,35,37,31,32,29,40,36,33,28,18,46,39,30,34,31,47,37,39,23,37,27,34,1e+08,43,37,33,34,42,32,35,32,32,43,29,32,40,35,35,35,42,34,35,43,36,37,41,40,36,29,18,46,31,47,31,30,41,31,38
27,26,17,23,20,22,25,23,9,23,18,18,25,16,23,23,22,22,21,14,21,27,20,27,25,14,11,25,32,16,26,24,16,22,22,17,21,27,19,15,15,20,18,21,20,21,16,18,14,22,18,23,18,17,21,19,26,19,24,19,21,27,21,15,12,10,21,14,18,19,16,23,21,19,25,18,26,24,15,17,23,17,21,19,23,18,20,22,23,23,21,20,17,20,17,22,14,23,24,30,34,30,36,23,31,34,36,32,31,28,29,30,25,35,38,35,33,31,29,33,17,26,33,29,21,26,38,29,33,28,33,29,34,26,30,33,36,33,16,35,27,36,26,32,33,27,29,36,31,25,29,18,35,38,27,26,29,39,30,34,18,34,30,33,43,1e+08,30,31,32,27,28,31,26,27,33,27,26,35,28,31,27,34,31,28,39,32,35,40,26,30,27,19,38,32,43,29,24,37,27,31
19,22,15,17,25,17,21,17,21,17,19,26,26,30,15,20,24,27,17,19,14,12,24,29,22,29,13,17,15,33,24,28,28,26,24,27,23,20,20,22,30,36,30,23,18,28,29,22,13,26,36,27,29,31,21,26,32,28,18,28,17,22,27,28,25,23,27,31,32,18,25,26,26,28,25,21,23,22,26,31,25,28,24,29,25,23,31,22,17,20,26,27,29,18,25,36,22,23,24,37,40,33,30,27,28,44,32,32,42,34,36,31,29,30,23,34,40,34,35,35,28,49,36,42,24,34,28,27,40,37,35,46,27,39,29,33,38,31,25,30,44,30,37,40,43,39,42,29,35,40,43,32,38,32,32,46,43,31,33,27,23,48,34,26,37,30,1e+08,28,28,44,41,40,40,41,39,28,40,32,44,41,43,36,30,35,27,33,42,28,31,37,33,24,30,38,31,40,38,28,46,29
21,26,17,24,23,28,28,24,15,21,23,24,28,20,14,26,17,21,27,19,26,20,16,26,26,21,24,17,16,27,36,23,26,25,24,23,25,32,21,24,22,25,27,31,26,24,23,26,25,25,27,27,28,27,34,25,23,27,25,29,22,17,29,19,21,26,23,26,25,26,25,29,22,22,25,24,27,25,24,21,28,23,23,27,30,24,26,24,19,30,25,22,26,27,23,24,20,27,33,20,34,35,28,38,22,36,37,35,33,35,33,41,24,26,30,36,29,42,38,33,24,30,45,37,25,29,31,45,33,35,40,35,40,26,40,36,39,41,25,35,34,32,40,33,32,40,31,41,36,28,38,21,36,42,39,37,32,34,41,37,22,32,29,24,33,31,28,1e+08,26,36,34,34,31,35,34,28,35,34,32,33,33,42,43,34,36,42,37,37,41,42,36,24,37,29,34,35,34,37,32,32
15,15,16,21,17,15,14,15,17,13,19,15,17,15,15,20,13,16,15,14,12,14,24,14,11,14,14,14,15,19,17,20,19,16,21,16,17,21,14,22,16,22,20,16,16,19,17,13,17,22,16,16,21,18,18,24,21,20,16,20,14,17,16,18,16,16,22,17,15,19,15,15,18,16,17,18,19,14,15,18,16,21,17,20,19,22,18,23,15,15,17,17,26,17,16,18,18,18,16,18,35,32,24,21,29,32,25,29,30,25,35,31,26,24,20,29,31,28,27,34,22,28,29,33,27,31,31,26,28,32,31,30,26,28,27,28,30,24,23,29,30,26,26,30,31,30,36,24,27,28,33,23,28,22,31,28,32,28,26,24,23,31,23,25,34,32,28,26,1e+08,33,35,32,28,30,37,25,28,26,30,35,30,23,29,30,27,29,27,24,28,22,24,21,28,41,24,31,31,29,29,30
24,22,20,18,21,18,20,18,19,17,26,23,24,23,19,21,17,32,18,18,14,17,19,25,19,30,17,22,17,28,21,19,28,24,29,28,24,21,19,25,26,32,28,18,18,30,27,25,20,24,28,25,26,22,25,31,28,27,17,28,17,19,22,32,28,21,27,28,31,29,27,27,19,24,25,25,22,21,25,26,18,28,24,29,17,23,24,24,18,17,19,28,23,18,25,26,22,25,19,26,40,40,25,41,31,48,30,42,51,36,43,41,24,27,25,37,43,34,37,42,33,48,37,42,29,41,39,33,39,44,40,49,32,40,32,35,40,37,35,39,46,28,39,46,41,42,40,33,42,42,38,32,39,36,38,46,44,35,36,35,27,40,37,32,42,27,44,36,33,1e+08,41,37,43,43,44,34,39,32,42,46,44,40,34,47,35,36,37,34,35,45,32,30,32,39,34,42,37,34,50,32
19,15,18,22,18,14,21,20,21,19,19,18,22,27,20,16,15,19,18,19,19,20,20,17,19,23,16,15,15,24,19,20,20,27,20,25,17,26,20,29,25,28,30,24,19,21,22,22,22,23,22,23,30,23,23,27,23,25,15,28,25,20,22,24,22,20,22,24,28,26,24,21,28,22,21,20,24,21,25,26,22,26,23,22,19,26,22,24,14,20,24,29,29,17,20,30,21,23,24,22,41,36,29,29,33,40,33,32,47,29,37,37,26,26,26,30,36,34,30,40,30,43,34,39,34,35,30,32,42,41,32,36,33,39,33,33,36,32,29,32,38,28,38,38,34,37,42,28,39,49,43,35,31,33,36,42,39,29,32,34,22,36,34,32,32,28,41,34,35,41,1e+08,41,38,47,34,28,37,32,36,45,43,30,33,38,30,32,36,29,35,35,34,27,31,37,32,42,42,31,40,30
16,13,15,21,20,20,21,17,21,19,16,13,19,19,17,21,15,25,20,17,23,18,22,16,18,18,18,16,15,20,20,19,18,21,21,19,14,21,21,23,24,29,31,19,24,22,23,23,22,24,22,19,23,29,20,22,33,32,14,21,23,17,22,21,20,22,19,24,24,25,19,19,27,22,22,18,20,24,18,26,21,28,20,22,24,19,24,21,13,17,25,29,29,20,14,28,19,18,24,23,37,35,24,31,28,39,28,38,44,34,36,36,25,27,20,32,34,34,33,40,28,42,35,38,26,40,32,32,33,37,35,39,34,35,35,33,38,38,30,29,44,28,37,38,39,39,43,31,38,36,43,29,33,28,35,42,33,29,30,37,27,35,32,31,35,31,40,34,32,37,41,1e+08,34,39,35,31,35,36,37,40,38,28,31,37,32,33,36,30,35,38,38,25,32,38,32,40,35,31,42,34
19,25,21,18,28,19,27,15,23,18,23,22,27,35,26,26,14,25,21,27,24,16,29,18,25,31,19,12,10,33,22,14,24,28,30,33,31,24,22,25,28,26,30,22,17,21,33,31,22,31,33,33,26,39,30,27,26,31,15,32,22,13,27,31,27,31,27,34,32,33,22,30,25,37,34,27,26,33,38,24,20,28,24,24,28,28,28,23,15,24,26,27,27,29,21,25,28,18,29,24,42,32,21,40,37,46,32,42,45,27,41,33,26,26,24,33,37,39,47,39,32,47,37,38,24,38,28,31,34,39,41,45,32,36,30,31,35,47,41,34,40,25,52,41,36,47,32,28,49,37,34,40,36,32,35,48,40,28,35,27,28,37,32,39,32,26,40,31,28,43,38,34,1e+08,40,43,38,53,30,41,40,47,37,34,39,24,34,36,24,42,41,48,32,32,32,31,44,38,28,39,38
13,21,22,24,24,23,28,14,23,21,22,16,26,31,24,20,12,21,19,23,21,18,29,24,18,25,22,13,10,28,23,18,26,24,23,26,25,20,21,29,36,30,34,23,19,21,25,21,20,28,25,20,33,33,25,35,33,35,21,28,19,20,28,26,21,28,23,24,27,26,24,27,27,28,23,23,24,20,27,29,24,28,21,23,27,34,18,25,17,24,23,32,30,23,24,24,22,26,20,29,37,28,29,38,34,40,34,34,41,31,45,40,22,28,25,31,39,37,35,37,29,39,38,32,25,29,35,30,53,39,38,38,29,38,31,35,36,40,31,36,35,28,42,41,36,33,36,36,40,48,44,37,28,30,32,41,35,33,35,30,24,41,33,36,32,27,41,35,30,43,47,39,40,1e+08,38,39,41,37,39,39,46,38,35,40,32,33,42,33,35,38,35,34,35,36,28,46,49,34,41,37
26,31,18,22,22,22,19,15,22,15,33,23,26,24,21,21,21,25,31,19,19,16,19,24,17,24,14,16,21,22,25,17,31,23,35,24,27,26,16,28,28,29,30,18,25,18,30,21,21,27,23,29,28,28,31,26,30,25,14,34,25,19,32,21,21,25,21,25,36,33,26,31,24,27,30,28,31,21,24,21,21,23,30,28,23,21,24,24,21,13,33,24,28,24,24,22,27,20,23,30,40,35,26,38,28,42,29,39,43,30,39,36,30,27,22,31,48,40,39,38,32,37,38,34,20,38,42,30,36,39,51,42,34,30,26,33,40,37,31,31,38,25,44,41,35,38,37,32,37,36,31,30,34,29,29,39,36,34,39,31,22,37,33,37,43,33,39,34,37,44,34,35,43,38,1e+08,37,42,34,37,36,38,31,32,32,30,41,34,29,38,44,32,29,30,30,31,37,42,29,36,37
19,18,24,23,25,25,27,25,21,23,22,21,26,18,27,26,13,27,15,27,20,15,21,18,22,29,23,19,11,23,24,16,22,21,27,23,23,26,22,19,23,21,21,22,18,20,21,25,33,19,24,28,20,24,29,20,26,21,19,31,25,13,20,23,21,28,20,26,26,27,27,28,22,22,26,26,22,21,22,23,20,20,22,15,26,21,20,21,25,29,23,22,22,21,23,21,26,17,20,14,32,30,37,38,36,30,33,35,36,38,34,38,21,30,23,31,32,33,38,33,27,33,35,33,24,35,30,34,23,36,34,29,32,32,42,38,32,36,31,37,30,27,42,34,36,33,28,30,31,32,30,29,24,36,29,37,31,32,36,39,33,27,21,39,29,27,28,28,25,34,28,31,38,39,37,1e+08,40,35,32,31,41,28,36,30,37,34,36,35,33,30,40,31,38,27,29,31,37,37,31,40
19,22,22,15,26,22,26,16,31,21,27,19,31,31,27,27,18,24,19,28,25,13,23,18,20,33,19,16,11,32,29,15,24,34,31,27,27,28,25,24,26,27,26,23,17,20,42,24,27,37,30,37,23,32,31,24,22,33,15,29,27,17,27,25,32,33,31,32,32,30,37,31,26,33,35,32,27,31,41,26,25,19,24,27,28,24,26,22,16,21,32,21,28,27,21,27,25,19,30,26,41,34,27,43,34,43,29,43,46,29,39,34,25,25,23,31,38,41,45,40,34,40,44,41,24,32,31,36,30,39,44,39,27,41,31,36,34,45,38,34,42,27,52,46,35,41,30,25,46,39,36,38,31,31,36,41,37,28,35,31,27,36,27,40,32,26,40,35,28,39,37,35,53,41,42,40,1e+08,38,38,31,48,34,36,35,28,34,38,25,43,38,44,36,31,30,33,37,39,33,40,36
17,21,19,24,22,22,25,23,12,21,19,20,23,17,21,26,20,18,20,20,27,21,18,16,18,16,25,18,15,20,23,12,16,20,16,16,21,24,21,19,16,21,17,23,18,17,18,17,20,22,18,19,21,20,16,16,20,20,23,15,31,17,21,14,17,26,17,18,19,22,18,18,21,22,16,24,23,18,20,20,25,11,18,16,20,14,18,15,18,25,21,23,23,17,22,21,26,15,19,14,36,31,43,33,42,39,40,36,33,40,28,39,31,42,36,46,31,39,35,32,24,36,34,32,22,29,43,42,30,36,36,30,39,31,36,38,34,34,23,40,36,32,36,37,31,36,31,39,34,37,31,25,34,42,32,32,32,41,35,37,33,35,27,29,40,35,32,34,26,32,32,36,30,37,34,35,38,1e+08,29,33,36,34,40,35,39,40,39,40,37,29,30,25,37,28,37,32,31,42,33,43
19,21,27,18,22,21,22,15,24,19,23,15,18,28,16,23,13,30,21,23,21,17,28,21,20,29,19,14,14,26,21,21,30,16,24,27,26,24,15,21,26,27,27,16,23,28,25,21,26,20,30,32,28,24,25,28,28,30,14,30,18,20,18,35,23,23,26,27,29,28,28,29,15,30,31,21,22,24,31,19,19,26,23,28,25,22,28,22,19,20,23,28,31,24,22,23,26,25,19,30,43,40,27,33,27,42,33,37,43,30,36,33,25,27,21,33,47,31,38,37,31,37,33,42,27,41,28,35,33,41,36,48,32,35,31,34,33,38,35,37,47,30,39,38,41,39,35,35,39,36,37,37,33,32,30,44,38,29,32,30,24,45,33,29,35,28,44,32,30,42,36,37,41,39,37,32,38,29,1e+08,42,48,30,32,47,29,34,40,27,32,40,39,30,29,32,29,43,42,31,46,37
21,20,15,16,20,17,18,19,20,12,27,28,20,19,15,19,21,23,24,18,21,17,19,21,24,22,15,11,16,23,25,25,29,20,20,20,15,19,18,30,20,30,31,24,18,24,22,20,18,27,25,23,30,20,23,24,28,22,15,25,26,20,18,27,23,18,16,27,25,25,15,18,34,21,29,22,18,22,19,24,18,23,25,25,22,26,27,23,19,20,21,31,27,16,24,29,22,22,17,24,35,37,28,35,27,46,29,33,37,29,38,31,28,29,27,34,46,34,31,44,27,41,40,37,26,37,36,30,38,41,40,42,29,31,29,36,37,30,31,37,44,32,38,36,40,38,39,28,35,39,41,36,37,33,30,45,42,28,40,30,21,41,31,29,35,31,41,33,35,46,45,40,40,39,36,31,31,33,42,1e+08,44,33,34,38,29,34,38,29,33,38,31,23,33,39,33,40,45,29,41,36
22,21,20,17,22,21,21,19,25,22,27,23,25,30,17,25,15,28,19,25,23,14,19,22,19,34,22,14,11,34,24,17,36,23,19,23,22,23,21,29,25,33,28,22,22,28,32,30,22,27,30,32,37,36,26,25,32,36,19,28,24,19,24,33,36,23,17,33,38,27,24,23,34,26,30,24,25,26,29,31,23,30,23,34,28,30,29,23,18,26,35,35,37,29,24,40,28,17,28,24,49,34,28,43,33,44,33,33,49,32,43,32,25,26,24,28,42,40,41,41,30,48,37,42,25,36,34,33,41,39,41,45,34,40,29,29,32,39,29,36,49,31,42,40,45,42,40,34,45,46,48,37,35,37,33,49,38,26,40,31,28,45,28,38,35,27,43,33,30,44,43,38,47,46,38,41,48,36,48,44,1e+08,30,34,40,33,35,52,21,38,38,40,31,29,35,33,55,50,31,46,39
35,33,19,30,25,24,23,27,10,19,27,36,33,19,10,22,17,24,19,15,28,22,22,33,24,18,20,26,16,23,34,17,28,32,25,26,20,29,23,19,28,24,25,26,24,25,27,28,25,27,23,19,27,22,19,19,24,25,17,26,14,20,28,24,28,21,33,27,27,28,34,26,20,25,21,24,32,30,33,19,21,19,36,22,22,19,29,25,12,22,14,20,21,24,29,31,22,38,32,25,24,34,39,42,28,41,42,34,32,43,28,37,16,30,34,39,26,48,47,35,20,33,46,30,18,29,44,42,34,35,38,33,43,25,31,34,36,45,18,37,38,29,44,38,33,36,30,40,38,25,32,21,46,42,38,35,32,39,40,37,18,32,28,30,42,34,36,42,23,40,30,28,37,38,31,28,34,34,30,33,30,1e+08,39,34,37,41,34,37,48,33,37,20,36,30,37,35,30,35,37,34
22,23,18,26,30,23,24,24,13,26,29,24,27,16,15,29,13,23,18,21,28,23,24,21,30,16,30,18,13,32,29,17,22,27,20,25,29,28,23,24,19,22,21,29,25,20,20,26,31,25,25,25,23,28,25,22,24,20,26,21,21,16,24,23,16,25,20,24,20,30,25,24,21,23,26,23,26,29,26,24,24,24,17,28,28,17,25,19,23,33,20,24,28,25,25,24,23,23,26,17,35,33,32,40,33,35,34,34,33,40,30,39,26,27,22,37,32,38,36,29,22,36,36,32,24,33,38,40,30,30,36,31,36,33,39,32,36,41,24,46,36,31,37,30,33,37,31,40,36,28,33,19,38,41,35,33,32,31,39,37,29,32,24,34,34,31,30,43,29,34,33,31,34,35,32,36,36,40,32,34,34,39,1e+08,35,40,34,36,34,45,30,37,27,38,29,31,28,34,36,31,35
15,18,14,20,22,21,23,16,27,22,29,17,22,26,21,24,16,27,14,33,26,15,23,19,23,28,19,20,16,30,22,27,30,18,21,31,26,25,22,24,26,33,22,20,19,27,26,20,25,28,31,30,23,27,28,22,25,26,19,33,24,18,21,24,18,30,31,29,23,29,29,30,15,31,30,20,22,19,34,26,19,32,17,40,28,19,37,18,15,23,23,28,28,25,15,29,26,19,19,18,40,34,28,33,31,47,33,32,37,33,34,31,28,24,22,34,46,35,39,33,32,41,33,41,23,40,31,35,33,42,38,41,32,33,33,32,34,37,32,31,39,30,38,35,38,42,38,33,43,31,39,38,28,32,27,42,41,31,34,29,29,38,33,30,35,28,35,34,30,47,38,37,39,40,32,30,35,35,47,38,40,34,35,1e+08,31,31,36,30,32,40,40,30,29,32,29,38,35,31,45,35
22,19,21,27,22,26,28,33,14,27,21,22,32,18,18,22,22,26,19,24,24,27,20,32,32,16,22,30,14,22,23,18,26,23,22,22,20,25,19,21,18,24,16,23,28,26,23,25,23,23,25,21,15,20,20,19,20,24,25,22,26,17,23,15,19,22,22,18,19,20,24,21,19,27,24,17,23,19,17,19,27,16,16,20,23,21,29,20,21,32,19,17,24,23,25,24,28,26,19,18,25,28,36,36,37,32,35,37,35,43,24,37,22,37,36,35,29,36,28,26,18,30,34,30,23,30,40,41,34,28,33,30,43,27,34,36,30,32,18,46,27,34,31,27,33,34,30,41,30,26,37,18,37,50,31,29,26,41,29,50,27,31,26,37,43,39,27,36,27,35,30,32,24,32,30,37,28,39,29,29,33,37,40,31,1e+08,33,41,38,38,26,33,19,50,30,33,35,30,49,31,37
24,29,24,28,23,22,20,20,14,21,22,27,28,23,17,24,15,18,27,15,25,19,20,25,28,26,25,20,19,24,31,12,22,26,23,28,26,27,25,29,26,30,34,21,29,22,28,27,16,28,20,21,26,29,22,22,22,24,18,25,23,27,29,22,24,20,24,32,26,30,27,29,23,20,25,26,30,27,28,19,28,20,28,20,29,21,34,25,23,22,23,29,24,23,22,23,27,27,21,23,34,36,29,34,28,36,28,35,36,37,28,39,28,29,29,41,34,38,37,32,22,37,41,37,23,32,40,44,27,31,39,33,37,32,35,31,39,39,25,34,36,33,36,35,31,33,29,32,38,33,35,21,36,36,36,33,35,32,35,39,24,31,29,26,36,32,33,42,29,36,32,33,34,33,41,34,34,40,34,34,35,41,34,31,33,1e+08,32,37,33,35,35,19,33,26,33,36,26,30,32,29
23,23,18,24,26,27,25,28,20,22,29,21,24,28,16,23,18,32,21,20,22,20,17,24,27,26,19,20,12,23,30,25,29,22,23,26,25,26,22,28,21,28,31,25,31,27,21,21,24,24,22,28,27,31,25,23,31,30,29,19,20,27,16,28,28,26,23,25,29,29,25,27,27,17,27,22,22,28,25,33,27,30,25,28,22,24,24,19,19,26,31,33,40,24,20,33,20,25,21,33,41,35,41,39,31,38,39,32,36,38,30,36,21,30,29,37,42,39,34,33,23,36,37,31,21,33,33,41,49,35,41,42,37,31,31,35,32,44,24,41,35,37,35,30,40,34,33,41,35,34,43,27,42,39,34,37,30,38,37,34,19,41,31,35,37,35,42,37,27,37,36,36,36,42,34,36,38,39,40,38,52,34,36,36,41,32,1e+08,37,42,35,35,23,38,31,36,39,38,43,33,42
19,27,26,28,26,26,23,32,12,26,25,28,25,12,19,16,26,25,26,14,25,31,22,29,23,16,14,28,24,17,28,21,22,22,22,16,20,26,21,15,17,17,21,31,23,22,13,21,19,18,19,22,14,16,18,20,24,19,28,23,24,21,24,18,17,14,24,18,21,21,20,22,20,18,19,18,26,18,14,18,29,20,29,10,22,12,15,22,25,27,18,20,18,17,27,18,21,26,21,21,26,31,44,32,35,33,41,27,27,44,24,32,25,41,36,42,27,31,25,26,17,23,32,26,18,29,49,37,28,30,28,30,41,23,35,35,37,33,18,40,26,34,29,27,29,31,27,46,25,26,29,16,39,40,26,26,33,44,39,43,24,30,25,33,41,40,28,37,24,34,29,30,24,33,29,35,25,40,27,29,21,37,34,30,38,37,37,1e+08,34,29,28,21,46,28,41,27,28,39,26,34
29,26,19,30,31,24,25,26,16,20,23,27,36,19,16,25,15,25,25,19,26,23,24,22,23,20,20,17,10,27,28,10,23,32,25,27,23,23,24,28,22,25,33,20,29,19,26,30,20,28,23,22,30,27,22,24,24,29,20,22,23,18,29,24,25,23,32,28,23,31,24,23,31,26,21,25,32,33,30,31,23,25,27,21,21,21,26,22,14,23,20,25,21,24,26,23,22,25,30,25,28,31,27,47,33,34,31,39,30,33,33,36,22,28,26,34,33,44,50,33,22,30,38,32,22,32,38,43,31,35,42,32,41,33,29,32,39,50,26,39,36,32,45,37,29,35,29,38,38,30,32,25,42,32,41,38,27,38,39,35,25,32,27,32,40,26,31,41,28,35,35,35,42,35,38,33,43,37,32,33,38,48,45,32,38,33,42,34,1e+08,40,40,26,35,30,32,35,37,35,33,30
14,24,17,18,23,24,24,18,25,16,28,27,23,22,19,19,17,25,24,21,22,15,19,25,19,26,12,15,16,29,27,19,26,27,28,22,18,19,19,29,27,26,29,18,21,19,32,25,19,23,31,24,24,28,28,27,30,26,15,26,26,27,30,24,28,24,23,26,34,30,27,28,22,28,34,28,25,24,28,19,24,19,27,27,24,20,25,27,22,18,26,22,25,25,18,29,25,21,20,29,40,38,26,36,21,42,27,42,41,28,37,36,28,29,25,37,42,35,41,36,27,33,42,40,24,42,33,30,34,36,43,41,33,31,34,32,42,42,32,29,44,26,40,41,35,39,34,32,46,33,33,34,37,31,31,43,38,32,33,27,25,41,30,33,36,30,37,42,22,45,35,38,41,38,44,30,38,29,40,38,38,33,30,40,26,35,35,29,40,1e+08,35,27,29,34,35,41,32,25,42,39
16,15,25,29,31,20,21,20,23,24,25,14,29,30,30,26,11,28,16,28,27,18,28,17,23,28,27,13,11,28,31,17,28,28,24,31,26,30,21,26,33,22,25,22,24,24,32,32,35,28,25,31,24,26,26,19,27,34,18,31,22,10,26,18,24,33,29,28,33,33,33,27,28,36,27,27,28,36,35,27,20,22,28,19,25,23,28,28,19,30,27,24,24,36,21,36,24,23,27,19,33,32,29,49,30,41,35,37,39,28,36,34,20,25,22,34,31,37,42,33,30,35,39,38,23,38,28,36,29,32,38,36,34,39,35,32,32,41,40,33,36,26,49,37,30,38,28,32,41,29,37,36,28,34,34,42,34,26,30,35,31,30,30,38,29,27,33,36,24,32,34,38,48,35,32,40,44,30,39,31,40,37,37,40,33,35,35,28,40,35,1e+08,32,30,29,27,44,37,32,39,35
11,10,24,12,19,20,22,15,27,17,18,11,17,25,27,36,9,16,11,24,18,11,29,9,12,29,26,14,10,29,18,12,16,17,24,25,21,20,23,22,31,11,20,14,13,17,17,27,23,19,17,26,14,22,25,19,22,23,15,17,14,11,23,22,18,27,17,26,22,29,23,25,17,22,26,21,23,26,21,20,10,18,20,13,22,23,14,24,15,18,24,26,15,26,16,15,23,14,21,12,30,32,19,33,31,28,23,28,32,18,30,26,19,19,16,22,26,24,35,27,45,29,26,25,23,26,19,18,19,24,29,28,19,29,29,31,26,32,45,21,26,21,34,33,23,32,23,17,34,32,23,40,17,23,25,28,25,24,25,24,47,26,22,29,18,19,24,24,21,30,27,25,32,34,29,31,36,25,30,23,31,20,27,30,19,19,23,21,26,27,32,1e+08,21,23,18,30,34,28,29,27
20,29,18,28,33,23,32,29,9,31,18,28,27,19,16,19,17,21,24,22,25,27,24,29,26,15,22,26,15,19,17,15,22,22,20,19,25,23,20,20,16,25,22,23,25,28,17,23,22,23,21,20,21,23,22,21,22,22,25,20,25,19,22,20,22,22,23,17,17,21,23,18,15,23,17,25,21,21,24,20,28,16,23,20,23,21,21,21,31,28,17,21,21,19,31,19,23,28,25,24,26,33,40,38,35,33,36,32,26,46,26,37,22,37,33,46,30,38,26,28,17,30,30,30,21,29,40,37,32,33,31,30,43,26,38,40,30,32,19,49,29,34,31,27,30,30,25,40,31,28,33,18,42,45,31,28,29,44,35,52,28,36,31,33,46,38,30,37,28,32,31,32,32,35,30,38,31,37,29,33,29,36,38,29,50,33,38,46,35,29,30,21,1e+08,33,40,27,35,52,29,39
12,13,14,20,22,18,18,15,17,18,23,14,15,20,12,16,15,18,15,17,19,22,23,20,17,13,18,18,15,16,19,19,20,17,20,20,19,18,20,21,17,22,20,20,17,20,15,20,22,23,20,20,22,24,19,30,19,21,22,24,14,12,19,22,12,18,16,19,18,15,16,21,22,17,20,14,13,18,13,24,15,26,16,18,21,22,23,22,14,20,19,21,22,18,17,18,20,24,20,20,33,35,27,29,24,37,24,35,33,29,33,34,25,25,25,33,34,25,26,35,26,34,29,35,25,33,28,24,32,42,30,33,29,31,30,34,31,27,27,33,35,26,30,27,38,36,39,27,35,36,36,24,32,30,33,35,35,26,28,31,25,34,34,29,31,32,38,29,41,39,37,38,32,36,30,27,30,28,32,39,35,30,29,32,30,26,31,28,30,34,29,23,33,1e+08,27,32,38,32,31,35
36,29,14,25,21,29,21,30,11,20,23,26,22,11,19,15,28,16,29,13,20,27,19,27,27,19,7,32,20,19,28,21,17,29,22,17,17,24,25,21,21,20,25,20,20,16,19,18,17,24,20,15,20,17,19,19,22,21,24,22,20,25,24,21,18,20,20,23,20,17,21,21,21,23,21,31,24,19,21,18,25,16,27,18,22,15,18,14,17,18,16,21,20,17,27,20,22,26,21,23,29,29,37,33,26,31,35,30,28,35,24,32,26,38,35,36,32,38,33,29,19,26,33,30,23,28,40,36,35,31,35,33,35,24,25,27,37,33,18,38,32,35,33,32,27,29,30,38,30,28,29,22,44,38,29,31,27,44,37,35,15,30,29,36,47,43,31,34,24,34,32,32,31,28,31,29,33,37,29,33,33,37,31,29,33,33,36,41,32,35,27,18,40,27,1e+08,29,34,35,24,32
15,17,23,22,20,15,22,20,28,18,23,20,28,23,17,26,11,23,21,22,21,12,24,21,15,29,20,13,13,29,24,24,36,25,20,26,18,23,19,30,36,32,34,17,23,28,26,28,18,32,28,21,38,36,20,26,37,36,13,21,26,16,27,32,28,29,20,33,39,26,25,18,33,29,25,23,30,28,28,35,20,25,26,29,28,24,26,31,18,23,34,32,31,24,26,37,21,22,23,28,46,33,30,33,34,42,32,36,48,31,45,30,27,26,22,30,38,39,41,41,28,45,34,37,30,32,34,34,41,36,37,42,31,36,35,38,37,39,34,33,39,27,40,45,41,41,38,30,40,38,43,31,32,35,35,47,40,27,37,28,27,46,27,28,31,29,40,35,31,42,42,40,44,46,37,31,37,32,43,40,55,35,28,38,35,36,39,27,35,41,44,30,27,32,29,1e+08,36,33,47,35
19,17,16,19,27,24,22,21,20,20,24,18,22,23,20,23,18,22,15,24,18,21,26,21,19,26,19,14,12,27,26,12,27,23,29,24,23,24,21,34,26,26,32,26,20,22,21,23,30,23,26,28,35,23,31,28,23,24,20,28,21,14,19,25,24,19,21,25,27,30,25,27,28,27,22,22,20,27,23,24,22,31,22,24,24,32,23,28,16,23,20,20,26,27,25,27,22,26,22,19,36,34,30,40,31,41,30,36,40,30,39,35,23,26,24,28,38,33,36,38,31,39,36,38,24,37,30,33,38,43,36,41,34,36,27,30,36,35,35,37,40,29,41,35,37,38,37,30,38,42,38,39,36,31,31,37,34,27,34,33,28,37,38,35,30,24,38,34,31,37,42,35,38,49,42,37,39,31,42,45,50,30,34,35,30,26,38,28,37,32,37,34,35,38,34,36,1e+08,34,40,38
20,16,26,25,28,25,28,27,14,25,19,21,29,20,16,21,19,17,21,17,25,21,22,24,27,13,22,30,14,19,23,24,22,19,21,25,20,28,17,21,19,21,23,22,23,23,14,25,26,19,15,20,19,25,23,20,21,24,24,23,25,16,20,19,16,25,25,19,16,23,23,22,22,27,18,21,20,18,15,23,23,21,16,19,22,21,22,24,23,26,22,29,28,17,21,23,23,25,21,20,30,30,42,34,40,29,40,32,33,44,24,34,20,34,38,38,23,38,27,32,21,25,33,26,26,28,38,39,27,29,33,28,44,24,41,46,34,32,20,40,27,36,30,30,33,33,29,41,31,28,34,18,38,51,32,33,25,45,34,48,30,28,27,35,41,37,28,37,29,34,31,31,28,34,29,37,33,42,31,29,31,35,36,31,49,30,43,39,35,25,32,28,52,32,35,33,34,1e+08,32,43
17,18,19,19,26,17,25,16,26,16,25,17,22,34,18,17,21,28,16,27,22,13,21,20,19,32,19,17,13,35,27,20,25,27,25,36,24,23,17,21,26,34,29,22,15,30,35,24,24,21,38,33,26,28,30,25,29,32,12,34,19,13,17,30,27,26,29,31,25,23,30,28,26,34,28,21,20,24,33,26,22,26,17,32,22,22,32,19,17,19,26,22,28,22,21,34,23,21,20,27,42,39,29,36,26,48,31,35,52,33,38,32,29,25,21,39,44,35,40,43,32,45,38,40,27,37,33,32,38,44,40,47,31,39,30,32,35,40,38,30,41,31,44,44,39,42,37,27,39,40,41,40,33,33,33,48,41,30,35,33,29,41,37,30,31,27,46,32,29,50,40,42,39,41,36,31,40,33,46,41,46,37,31,45,31,32,33,26,33,42,39,29,29,31,24,47,40,32,1e+08,34
