1e+08,2.78034351067691,5.77151827228335,4.39840348317047,4.9569392818409,6.9777741384129,6.5258524799442,3.60874885413001,12.6776133725262,5.04769023584793,11.7538783947662,3.9685349687815,8.92050582694505,9.5424979025716,6.58167161476511,9.73483216221594,7.47900479376549,11.4942776299864,3.93049898658088,9.79972090413588,10.3047881750834,4.81753377278949,6.55369597570457,3.76992443817246,3.58202796557713,10.6434902384734,8.04048472855477,5.56642327335185,5.35525815707156,12.1550653196785,6.1924345490883,12.2932839174863,8.80999290291724,7.84710276083829,9.10446319807372,8.05378805572952,5.20348523936493,4.37500355897834,10.6861765661178,10.1969360833563,8.79463192260798,9.13211606921705,9.53606875130138,9.61608676916043,7.43267289348156,8.43845516984746,8.30050467233032,10.2198825176573,8.40732426271237,7.55611304715112,8.71450258140273,9.7171591138207,9.90884511887161,7.96790873156828,8.65787715948726,8.90723635953503,10.9640318719285,8.14908950698858,4.2615821505809,8.71341536582445,4.23858822039349,3.98207144590457,8.49832258898774,8.74090843717278,8.34013976712753,7.51674341765959,6.55459628896095,8.25336415956332,8.71782751471741,8.47695245196102,7.91620152085293,9.08531590669444,9.13164906788738,5.5520908679208,8.94365629758865,7.5061043736501,7.33374914856539,8.68810749655866,8.15524353084981,7.62278579493491,3.95930088487433,9.32823205954973,8.31059057909981,9.62069050377776,9.06653123962228,9.85117271936862,9.23739591367019,8.92306051966231,2.71713346546876,8.03319989233985,11.9820140295421,9.02559669693808,9.07826706612066,9.19811577957533,8.11854635891437,8.24575994197411,5.82990753352243,3.00842492934253,7.87623142416627,9.07514201687315,9.76718229326502,9.99714996860824,3.82853592405738,8.39537187477575,6.59919717037703,9.44459425855299,4.57349318258268,8.88582589369277,9.37402909315319,4.82519733969219,11.6049862294472,11.2280195404259,11.6607837583015,5.03966562148624,10.5915003024054,4.97086572414737,9.62474964527752,8.03247632583818,11.1094978996976,11.3526456495928,14.3491554217617,9.99708575903239,9.31012967368237,9.2951589761472,12.5447355221362,12.1271316344317,3.62229718930566,7.54593566798104,11.4411083034706,9.10555515472405,8.54168243453115,10.1197893157064,4.9834186989211,10.9406411337629,10.0447827701362,5.24640845177853,9.46273081619536,8.40586808913062,14.0183396297347,4.98122319253461,9.30123544831096,8.69415650036291,10.4704284497359,9.22766302527868,9.63009919971014,9.35844107357379,10.2867063783066,4.8306194864897,8.98231896775818,12.5565094605852,9.30105716999505,13.9139600264711,5.65557145991106,4.54238956792544,12.3554426705507,8.90785728868315,9.07762367159387,4.64341316415592,10.6595536661413,5.63187629775034,13.3902211472896,10.1923588160347,10.8088350705812,6.42025325320621,7.6515545742369,5.36255182505182,10.1550235248255,8.65760792468974,10.9691640007974,9.58172218714285,9.75351444187393,9.75517573812702,9.59473671513448,9.81718963486336,8.59345687451438,7.33638182932746,8.97169397557394,5.31267304704678,9.64666384693914,9.68517034980976,9.09025447613244,5.04016653420621,10.5549823813665,9.27046137739899,7.21084946618208,6.06255443328105,8.04550955698109,3.8359017702218,7.14909377934232,9.18252239782388,9.15619936464181,13.6259302465628,5.72200042036068,10.718275279324,4.68610547454377,9.50633884615355,10.1088549976065,7.18353594017272,11.7081786851082,6.92441423525116
2.78034351067691,1e+08,5.88385778585404,4.6308238747561,4.03377527190453,6.55864400679408,6.45730551071634,3.72652008597889,12.8370393727568,5.24655904207535,12.046763726112,4.11643536837051,9.27459280849145,8.84773112101909,6.61477281934373,9.83204509209556,7.67233602935503,11.7591312267887,3.99252561733454,9.47576567200064,10.7777307306346,5.62713337435584,6.13955410420341,3.82351021393912,3.30462777870198,10.8520259564951,7.45796909097054,5.56701739155569,5.66007417315125,12.5029076013431,5.35099456531999,12.3093709767375,7.67752090075002,7.38794187507817,8.46960475826598,7.13053946841194,4.09553928032214,3.32838369708697,11.186049640566,9.07885166575938,7.78560612981367,8.27832244442388,8.21433032177807,9.98189760737931,7.13505841951451,7.46867944164158,7.50859701564249,10.3368586477868,7.34591312464084,7.18311121714897,7.5697045816635,9.13783201034268,8.77734952484991,7.03134512716607,7.78697741183487,7.71558732220507,11.2239544108428,6.89159822225669,5.25135527199242,7.70207975474067,3.34877341938667,4.61850151717833,7.94625419157295,7.44802797434511,7.55517885181292,6.26476404911408,5.08589491979837,7.33157023589907,7.57214594194747,7.36106181266964,7.0421145798637,8.29304809323756,7.70584077359455,5.3540714912728,8.2874574032073,7.13551115128182,6.83263715522502,8.23814319365587,7.30423340807077,6.65069433966455,3.69095604522135,8.07749940585497,7.67651255565038,8.97742441789722,8.57320006469556,8.68793648662904,8.52731282741153,7.59556095663257,2.73031087211716,7.72724066058289,12.1043562379335,7.93602848923471,8.17980344461392,8.77170562858991,8.00462439393541,7.24204175789229,5.70146317375898,4.06667561281466,7.22361764197388,8.58304787637181,8.88444952938365,9.52374906804854,4.38845502987273,7.55089410709875,6.60579152689067,8.87974283142944,4.61603996058115,8.43786612420397,8.49119565828201,4.43399516267572,11.3794915465562,11.5515660836531,12.0808580503568,5.77148137960078,10.2514280553356,4.44305164665711,8.96695484948761,7.66670373617785,11.317344893802,11.2458554162576,15.2181668742926,9.17248332218624,8.9593586239633,8.49451232180669,12.5716690721785,12.2881522683912,3.31220866899376,7.1091454192459,11.256704283241,8.46643856925556,7.85979720305973,9.75305988299186,4.87289667690868,10.4829058180473,10.2832095052892,4.61528348242821,9.19298730221524,7.96383223853258,14.8252133378985,4.6180008470716,8.44631294373984,8.99266040024407,10.4418699867795,8.606692979615,9.01802107425207,8.7628184933483,9.78375557775724,5.10172647951114,8.24034617923567,12.5706169293478,8.30641378313091,14.4610538119032,5.34897614243176,4.17644971674563,12.5941207406001,8.03486708858599,8.08001425919852,4.8170093054622,10.9144262873117,5.07619130789337,14.2610403615062,9.8409045950207,10.45734585423,5.66131967513944,7.49571304229414,5.22388618006674,9.68640913950173,8.30876494801074,10.2120789322258,9.0227357204417,8.80033109011616,9.05523465784911,9.13912247084085,8.80099187582698,7.93490568029416,5.9942862175574,8.14553439462408,4.58942388491679,8.94069309771214,8.88016441736011,7.944856272339,4.26580582191856,10.8419432733582,8.48505353901853,6.91187930405005,5.36021705775601,7.25681979555174,3.70552260137723,6.10195372860217,8.49567834969642,8.56868908594172,14.475097661422,5.46504531137114,10.0414618332988,4.89802930792003,8.66008757789757,9.17873702647925,6.68809577278232,11.6944403032013,6.39965606521614
5.77151827228335,5.88385778585404,1e+08,4.96886639685852,7.40432427767941,5.69494379746708,8.41164649042704,5.37751664518087,14.5565476001711,5.24571796738351,13.6291015461256,4.33422016490156,11.5826251835368,11.0215861320077,3.76338756912354,12.0640121796536,10.5141866986793,13.1129633341126,4.8502702158934,11.6577067618451,12.5309478587348,7.66712893540282,9.25916079802245,4.55637914504639,6.33703096751702,11.9222380183396,10.1321110581912,4.50623818640619,8.45107990645417,14.3115123072052,9.33636068458648,13.8279386804117,10.6560892979144,10.4554664779733,11.5069360900973,9.94912586011301,7.10356139628851,7.66885619870456,12.8147746339365,11.593740324058,10.2122498913363,11.0708815984754,11.037533311815,12.3446259040267,10.2895619840114,10.2599507313357,10.3093445168038,12.6396787476881,10.245469972911,10.4968199788283,10.6638569625244,11.8576182381103,11.4195722915552,9.74607968101024,10.8238541325909,10.3708734480282,12.763714236671,9.78152964063881,6.75007396076897,10.6176556155198,5.47937002872918,6.18869317271097,10.8634307699142,10.6379751588399,9.76985941587405,9.08495491948423,8.56412994400212,9.84820631092368,10.6606024808791,10.4866711578488,9.89860367318319,11.2031637749675,10.4242374128841,5.03248330653157,11.2725705706664,10.4613422046775,10.0534703197524,11.1996659110544,9.94291792384664,9.1851311395884,7.32711297469699,10.9603567365558,10.9617761064826,11.7577847194297,10.9828800240676,10.9782595927034,11.2513076838895,9.95290636059721,6.54248540853885,10.3201512803085,13.5943937348142,10.5257278984919,10.7982917205067,10.9309437696759,10.6706342657509,10.1175237126347,8.748865518569,5.41386993267858,10.2911893954394,11.3589424019974,11.086182819163,11.6330513160007,4.89630718129315,10.2031530247021,4.71273741335872,11.0592617492865,6.53631748865478,10.9444999896686,10.6217310018413,4.85836547486137,13.4949172423809,13.3427106132732,14.2929507449612,5.52120532917437,9.12731947875908,6.18948545685868,11.6675189117558,10.5914627155779,13.8181653499962,12.7868950926745,14.8110921332473,11.5615943337859,11.6229043325638,11.0736065651684,13.5007406001205,14.0468546866773,5.81059097616103,9.86949946193487,12.5452481719999,11.17554655896,10.6736943229197,11.8539932746798,4.67355597401105,12.3951275942465,11.956072284656,7.15876819598316,11.709152332518,10.5993315249182,14.7479569338381,5.09675729958777,10.631133132431,12.0935474442792,12.9603633508185,11.0288231323239,11.4964958873751,11.264573579618,11.8036445482246,6.72580787970459,10.4085723698836,13.7987730881029,10.260034246905,13.7424522110887,7.00908748425078,4.26022781482533,14.7519514971529,10.5512762005257,10.6611116230444,4.79769119783926,13.4557407222191,4.75724677619194,13.9040188663044,11.8746824140843,12.8059238368975,5.33617981939074,6.33307773742918,5.14848332311131,11.9740568345809,10.9589520883952,11.9758847301989,11.0748261853534,10.5434296821255,11.2562579087345,11.3689175161129,10.4502352982874,10.8033914948457,8.68230910884962,10.7456594423861,7.74762312779466,11.1532523066692,11.2097739876546,10.2269681642291,7.54355840045427,13.0969756221184,10.988740059617,5.73765500639058,8.65845794375759,9.78397633345057,4.92976063439855,8.80777854142177,11.267324063335,11.2048364261267,13.8907990965797,5.14356067318754,11.8786622454899,6.22087753422314,10.6156191137169,11.1060351911403,5.58668644964023,13.7626302170902,7.98158331665124
4.39840348317047,4.6308238747561,4.96886639685852,1e+08,5.53732357355016,5.96715960692516,7.17983038691323,3.08377744829872,13.0303833242965,5.43811243546691,12.4078513786212,2.21027165879231,9.71348691628536,9.54764439790218,5.94008466604327,10.172570230095,9.49890767169424,12.1411533486443,2.67269564045174,9.64616929546617,11.5676538775291,4.72146397405206,7.70066887289889,2.57005828352044,3.13614211622472,10.8304066286692,8.7287677762016,3.61910754156687,7.43735193465863,12.6491449799059,7.09455636494701,13.1053756210158,9.37863177684474,8.65158304237512,10.0700433009486,8.42148722399287,5.58197906353832,6.15858417543074,12.0203505677859,10.4747309477397,8.66909346252198,9.64723643734333,9.84512071379432,11.020856382933,8.47800440405491,9.04955751350452,8.78483055038373,11.4467259681987,9.02528576849673,9.00067471954173,9.30072600379122,10.557510990784,10.0504346551388,8.23057578382193,9.32260270542475,9.40327624651524,11.5830796727984,8.51670104068709,5.01620527303905,9.36853009024696,4.4045465047588,3.88465284143004,9.45055837374224,9.31609232975709,8.77132290369011,8.2599767568556,7.34788343816109,8.4281104870691,9.28201973975586,9.08719518314048,8.37282177444929,9.75215048296168,9.42184353438239,3.57477365378104,9.8720964463313,8.58464454638908,8.2981193417337,9.33696122025616,8.44262136217544,8.03268463643591,5.03699970524039,9.87939407313113,9.09364566924373,10.34105344175,9.92579633479614,10.1878084455563,9.82483223278561,9.28184515560729,4.81123840802345,8.67609043013585,12.8408922426258,9.53798998226741,9.46820216142594,9.67991228465005,9.07071695273372,8.86428597618105,6.68948555999468,3.26123445876715,8.7689496130512,9.92731343562214,10.1666048637239,10.4259608582196,4.32464959649303,9.14772441063058,6.38159963638936,9.82347536303667,4.89563337284883,9.66760308544688,9.47546455037991,3.99491321363049,11.6217695361527,12.5763663595562,13.1161535381133,3.68805182686024,9.11625519557586,5.04022005892117,10.3685386826693,9.06308740637546,11.9501401087208,12.1214659018483,13.5634083274536,10.4464321565465,10.0648002309645,9.90395790494573,13.0073864884677,13.1895918042286,3.67933912493288,8.37058052157439,11.3996894610638,9.81963356998939,9.38977934981859,10.5312869271569,4.07832463203718,11.103583080056,11.3554264664334,5.06046310110587,10.1654863880648,9.04709421401473,13.3979777457176,3.57535503078242,9.57539933771444,10.4282137621707,11.1372936311176,9.83616961355441,10.2298294405453,9.9511150169974,10.628516944316,4.99582245722511,9.42569469334359,13.2276035840419,9.35722599838374,13.0362360094713,5.61550600607479,3.83537672813913,13.6494984150018,9.20723388449872,9.58706956848524,3.73578154321954,12.3951247528233,4.72658486167592,13.2077879616875,10.6175724411843,11.6297887988112,6.44083301800475,6.38393431169753,4.4338928345957,10.6687741370032,9.56659261170689,10.913739906997,9.81270203626463,9.67739170681263,10.1547141652775,9.94786799743169,9.5849375339403,9.53202399555181,7.51895299360702,9.59577303211387,5.74225799037204,10.0462943345743,9.98455452460828,9.27857727839418,6.19194113698725,11.9702548006417,10.0057422579924,5.26122285667868,7.06547956285722,8.07912001217257,3.75740942318589,7.83063640292971,9.92852714593331,9.7943463963155,13.3970623940993,4.3256237561957,10.9016891521082,4.08025211080823,9.65916694680468,9.98015562473573,5.54963559000646,12.0821125163819,6.46594877738105
4.9569392818409,4.03377527190453,7.40432427767941,5.53732357355016,1e+08,8.57969957941858,5.80320376675798,4.75211223940045,11.4306789398021,7.44267493272981,10.9702869010999,5.94919051166882,7.97848201854751,7.01365025612562,7.78669675285133,8.54110341473018,8.94923875224545,10.7891146576987,6.36976415470278,8.05687892986769,10.825127719475,5.99151973874809,4.85993550319638,5.52797547413907,3.84955257424895,9.85754435134217,6.10729813815617,7.39943762677125,7.35847271438308,11.2882408227452,3.61731671317898,11.1249564128321,5.6675997208219,6.28180041992784,6.68879002028641,5.12981899907599,3.90384138057782,3.63169286063106,11.5025320910863,6.85705861339538,5.35853666482113,6.17589820680839,6.41200677650031,9.87034761745335,6.10085642522891,4.96692053049606,5.56985438449573,10.1143700977074,6.1467668308799,5.81130530167899,5.59275022543855,7.41875422637524,6.56645808570826,4.89935944600001,5.90622551597861,5.27104093284449,10.1878410279637,5.2251734050681,6.38862837905054,5.9483078881521,4.02122969538505,5.85223646669379,6.52368910270407,5.66654353500895,5.01298684810911,4.69685063355435,2.62424332927648,5.1524677386783,5.67224608647255,5.44325396752289,4.89504133109533,6.49367344463068,5.64953830496007,5.14972420119389,6.51725580363912,5.8979412143114,5.51569242934445,7.13401108026343,4.99767569801304,4.098619905786,4.30139690541764,6.55136864792667,6.34848226075903,7.04342240792732,6.99875853360784,6.20439470777606,6.45754045535223,5.61287400489785,3.98944453359137,6.53205579478443,11.46424421121,5.64032748736113,6.01560512731184,7.34261201995799,7.02624797481687,4.63170850420792,4.26712037828706,5.34667832234342,5.92845846219509,6.44408135966615,6.83576213671323,7.441280319199,6.60044678360088,5.95167486178267,8.2229313660323,6.67920237397997,5.15376639371248,6.5938986940099,5.97122406846138,6.11639145235511,9.38744832208682,11.5968748982359,12.4227039586543,6.72919873227077,10.3505706262619,4.54413445298676,7.15018246879372,6.30959877000865,10.1173629058474,10.3303478501089,14.3997494774431,7.09509962733802,7.42019226643485,6.36957006600079,12.1679008103812,11.9718306876275,4.39161393501071,5.84706724882874,9.06292742954638,6.5041746267107,6.29736487588763,7.57233193128387,6.57577044321871,8.75885035664947,10.4475956984772,3.81763506557055,7.47378252943474,6.00546494484354,13.9138942406869,4.70521753261067,6.28709685166788,9.03262868380476,8.76146065709065,6.54446926295968,6.79455299592729,6.89670956027541,7.47601268603078,5.24074985555465,6.12437367465402,11.7206813083333,5.89675304526772,13.6318335817432,6.26675301777793,5.95326989529653,12.6847785547925,5.60474240975079,6.13663803830362,6.68672302676489,11.0478700377182,7.002286997476,14.2410063067586,7.47509911917874,8.79317704915113,6.29592135086937,9.33006751398763,7.11606551888263,7.38818648911411,7.06283807516162,7.68600283903751,6.56368954553586,6.31148201135037,6.83958367764204,6.93554571443107,6.29207583380894,6.38122893746324,4.57450985518162,6.22905711676664,4.03773548405861,6.68780464667974,6.48215941528182,5.76971757389795,3.38407982133778,10.7736761903359,6.72411392013162,8.00104879812827,3.95679145966054,4.51331419598626,5.99658339878844,4.63104335795934,6.80165639360151,6.71896516141223,14.3004141107395,6.64516514480141,7.71812717556543,5.27069564500626,6.10305552649169,6.61398292036396,8.09105682978517,9.89823488161903,4.69498868782759
6.9777741384129,6.55864400679408,5.69494379746708,5.96715960692516,8.57969957941858,1e+08,10.2343384135368,6.39608284079002,14.8142038748687,6.82938159309848,14.9827203064951,4.89149139824168,13.1383970208381,11.2837651194271,7.47311330656922,12.6914942327598,11.7059623349939,14.8015459364932,4.8694391165912,11.4211241826083,13.8188960516055,7.62278703175749,11.0254228246222,5.1373391587109,7.48363932705474,13.0968508981099,11.1481677342463,4.42628564353293,9.82983703603545,15.0410480384573,9.81886027623866,15.1607235117732,11.3054495869965,11.1050227789339,12.4444655351507,10.5318897173862,8.09486706724306,8.55425518803938,13.9801285927671,12.1783062286254,10.7082735817058,11.9560733700021,11.1435590459916,13.5617548788704,11.0800050192778,11.2710237167757,11.011297446704,13.5158353405729,10.4151180516708,11.5780070311999,11.2328519392776,12.3929896631136,11.9566989245616,10.3114836707591,11.6154934211916,11.1550652542656,14.1891382465617,9.66207436623105,8.31113723737149,11.386994536622,6.63713323847069,6.6108857088911,11.6385522213005,10.6626805485978,11.0288006735709,9.3472743691448,9.32143915036739,10.5505432173097,11.1094176843087,11.095662805841,10.7268240387662,12.0678333058665,10.4883763807531,6.11887417947666,12.2217094432869,11.0456515904941,10.911951357127,11.5808923390703,10.8271563588583,10.0204235513363,8.41852458116764,11.1323504492582,11.4325921629035,12.5724617962175,12.0498162850463,11.7527712211789,11.9589115232132,9.98173118505149,7.57251685782988,11.1319760652908,14.5521542397487,11.301132503356,11.7470417900263,12.2679236379249,11.6705716932301,11.1514080347338,9.5923067762313,6.43861305391135,11.2687199498166,12.5979975774494,11.9662487466809,12.862914879512,6.38376725750904,11.1882497685213,7.17672945309622,12.4445865855202,8.56996205717252,12.2870310401466,11.6443677084947,4.64230393858261,13.9261492296339,14.5214761066984,15.0274531171507,6.76656597980204,7.58509170184905,7.78055948486728,12.6873903082618,11.9368259450925,14.7137664953826,14.1450791643629,15.7112204012,12.3634157147305,12.766801593986,12.125916025765,14.1975295608076,15.0422725884179,6.76398209613067,11.0505744605468,14.004938405272,12.330963353611,11.7630911748634,13.2501501381094,4.54529918443211,12.9179945314096,13.5049654697805,7.81637449651765,13.1096797156145,11.8803104139611,15.6023533562913,6.49701375993292,11.7022573429566,12.9060832244937,13.9360127213551,12.1549446030714,12.5802310381402,12.2978475909436,12.9770966835461,8.74470587719033,11.7277689357189,15.1608116726833,11.1915010752555,14.851041140579,6.35740579014267,4.88716081198891,15.165204537824,11.4079687516647,11.4374701559736,4.63630996981698,14.4645465545119,3.71728907562139,14.9688186219719,13.4612340426019,14.050433448881,8.11602642411153,2.72742640217414,4.40782820648311,13.3226294048381,12.1850500087351,12.9608865722372,12.4262291673961,11.5607000805054,12.3556655495181,12.6210451115801,11.2278219679373,11.9658999962016,8.96047291060571,11.7003620749022,8.44996800506981,12.3866586469273,12.2744529408689,10.9032254026206,9.16141556841727,14.1932889022496,11.9002984657008,3.84338851127279,10.0401449912484,10.7912565759783,5.37992717640663,10.1723995069109,12.1762842868016,12.1461633101269,15.0597119578737,4.45844106230133,12.9424841415321,7.24752680918318,11.750505462261,11.8567832083167,3.0352040915366,14.6909792686903,9.35637102341038
6.5258524799442,6.45730551071634,8.41164649042704,7.17983038691323,5.80320376675798,10.2343384135368,1e+08,6.75044942221017,9.51895550575347,5.96481441566318,8.27065525566293,7.82450686220293,5.28540467268519,6.98691786988247,7.4007448172724,6.20730186782044,7.75829115042136,7.68824509281679,7.76696443050781,7.0401041400465,6.98984119925269,8.18932714540212,5.0090806674188,7.55018612386028,5.56847065839046,6.71723867970863,5.38419693012185,7.78760936594241,7.26042798604306,9.44007549960333,5.33754705874456,8.77027657880591,6.28987284424738,4.86295907451874,6.341736664823,5.57904853336628,7.11247662822135,5.71945854646818,8.48048955934362,7.7957147057484,6.89939343414305,6.02189904910974,7.85834194340429,7.24622892838126,3.95353548729655,6.41253952376944,5.88405713765443,6.90045879917086,6.76281769311504,5.6544488388386,6.27631296326174,6.54009295949149,7.52691490551414,5.65557856641406,5.77672798753756,7.3240442070962,7.60980039456775,7.00298076477865,6.95671684015097,6.21672244265822,6.85334204086268,7.78249705395007,5.12536905856882,7.19403042929965,6.56161088894061,6.68778744924967,6.2485644993008,5.83758524593321,6.09025956320968,5.81541611933791,5.61132595927187,6.15074644401902,8.20799350715,8.35176267442133,6.17256916092347,4.93433678893467,5.11667830876823,5.79632644575061,5.92271825167436,5.90287496276389,5.22643689415143,7.26289193094671,5.35918917727764,6.59402400747463,5.5952483300695,8.19873925441761,6.11035691106095,8.50727202917686,5.93859764830061,4.63656556792164,8.78685988803335,6.90034427171066,6.22490425566418,6.00945284807078,5.26869582030161,5.93396536997962,5.97485528520435,7.71080557796812,5.10919353696303,6.39241840359216,7.82998224094501,7.25739895653484,6.74164951032671,6.61267123466274,8.19626443399557,7.26262357288195,5.72030896526196,6.27357929641567,6.87827698829833,8.51109403991472,8.8587176499512,8.5346153033554,11.272336952896,7.27080002310755,11.0540777930224,6.92292806796617,7.19583892780442,5.08086460453332,7.90263576879146,7.89932545483682,12.4597035591982,7.62791851379529,6.7562053868458,7.20726317422502,10.0726747461326,9.26407177117939,6.40970158742051,5.05032561709402,8.30851105344295,6.98145492034151,6.52632590448739,7.52734809609625,9.01078468707854,8.66660943897775,7.06726307541829,6.79016400366916,6.90168811303529,5.49585304719942,11.6164377048806,7.29972059888031,7.68182347209142,6.7911624695298,7.17768486208751,6.82298990190969,7.26036075015162,7.03941067443151,7.97254982465651,6.09013112415238,6.87545812061765,8.8879529025943,7.93810400818131,11.2103152532477,9.62481595407013,7.96195626891003,10.105751485474,6.71924807155784,7.27908016298197,8.19260417718148,8.44860057981404,9.49018881419874,11.4088220833549,7.65815208793567,8.48010569599471,6.90907907687093,10.7285822057764,8.28819376975359,7.4637315458455,6.02429282306576,9.37614955944824,7.22341362711894,8.5088370858691,7.53684403033319,6.64623045854203,8.00432608388429,6.48164624002756,6.70935466854862,6.53469260245765,6.33623338220233,7.48320693570548,7.97563612357514,7.72071230658166,5.36091964765132,7.63819970193198,7.55814530360147,9.65510052950637,5.24200209604114,5.76705498360845,7.2907718447244,6.19280798352549,6.99955120172563,6.97624885657672,11.3442277818679,8.72042077695363,9.06834994539285,7.45488232233033,7.4484043767789,7.93397167094066,10.4043202040885,8.33562036066259,7.11150967152649
3.60874885413001,3.72652008597889,5.37751664518087,3.08377744829872,4.75211223940045,6.39608284079002,6.75044942221017,1e+08,12.9234160599615,5.91596909331471,12.1488026349413,3.2987769602382,9.13904624833133,9.37705632214288,6.21846924508003,9.82092610776719,8.4821196073869,11.8759530929466,3.57606832154485,9.67618078365344,10.9877991214838,4.49297574639232,7.15287234348051,2.77137899995691,2.96983179152985,10.6874412175857,8.17690536754974,4.45392074669293,6.49793800463197,12.4833953037979,6.12610749157842,12.752417148124,8.49594185736762,8.01675831560057,9.24661901500942,8.03840501159354,4.55471751261368,5.00915159103231,11.5127319378943,9.77774444855809,8.56389938931286,8.83286584893566,9.20220120635251,10.3238192861085,7.70824347270086,8.08823243623232,8.25952666246038,10.8876615790051,8.4165409400649,7.83502778172307,8.40840764486106,9.85418738000516,9.37338681978277,7.92201891266913,8.46918217579852,8.78893008170293,11.3312644245687,8.09597821267633,4.45212435383885,8.39031580825994,3.61134934140068,3.50617006898814,8.42005145391532,8.58739297277643,8.13536443110544,7.60619115917995,6.53230704621085,8.13262011593508,8.55339846351165,8.12766382726233,7.77022304871065,8.8425613374343,8.80145075694196,4.84635485165827,9.02895201734019,7.68729653933923,7.36108067301054,8.87583069445569,7.92097035430341,7.57654257525013,4.42842238405214,9.0840026525969,8.28110998064447,9.56037540577929,8.98772166535489,9.35314418063352,9.11054311383562,8.93473209209288,3.45711465176537,8.09453404751818,12.5030865152026,8.56502001456583,8.62811241538424,9.26076704180074,8.22632373618807,8.08528514593441,5.85694291319328,2.68124561501949,7.66412394566597,9.1283007641586,9.4507025816404,9.66439560035269,3.97436360223734,8.29620795462708,6.2516286839682,9.12824908570895,4.03492874276026,8.87623191953432,8.94962836037188,4.64009961236683,11.5294606922985,11.9993827963228,12.3821497752754,4.3955918317698,9.66148052449533,4.16714291344398,9.62930631145876,8.14793594903138,11.5695459630903,11.7742142500018,13.925319588476,9.86241762681575,9.2773301970961,9.10148733985096,12.9901615729358,12.8393320933125,3.28113110381648,7.40237558090881,11.3724337191292,9.00656902793522,8.51557083627991,9.91353992976044,4.65064862598763,10.8305205280797,10.6650574699261,4.87727684424409,9.38346458872321,8.29860905558263,13.7092587777264,4.00315743830495,8.88526496703101,9.33135730457453,10.7187690167365,9.09894608505857,9.54175764722581,9.15419252793881,10.0015975808585,4.04319266915627,8.63894157380612,12.9448170886303,8.76748055809211,13.6125141029744,5.69218983070994,4.27402251741374,13.2563971591968,8.65361736911363,8.88502736614865,4.36924393208022,11.6146318206847,5.36096909577651,13.377622954958,9.96380287188285,10.9553680399327,6.20569175313146,6.94356823246769,5.01977528462901,9.99216669450014,8.62334354813094,10.6237739843571,9.16587606287219,9.17143231301315,9.50922126823524,9.42529815220795,9.28436781025084,8.62147210530746,7.02969601850311,8.8648422983488,4.87380083962196,9.30073981190812,9.39514286869432,8.6754354344591,4.89098432046259,11.4072666458861,9.16794001088392,6.30948427869871,6.01751530703161,7.84780488003814,3.63334503360561,6.81664463256143,9.07395944195619,9.13779301535977,13.6006018759942,5.27354717422642,10.4219212039359,4.13110769425701,9.12963354061664,9.65642872128901,6.43053633464101,11.8742316188331,6.23331008377312
12.6776133725262,12.8370393727568,14.5565476001711,13.0303833242965,11.4306789398021,14.8142038748687,9.51895550575347,12.9234160599615,1e+08,12.2366385024533,4.57544629850175,13.8159274815064,6.760120256406,6.72060774254931,13.1818223223719,4.36168704560759,12.5842984175606,4.87473681271967,13.8883990551134,5.07219073247321,7.70799108738274,12.628536495435,10.2781799316601,13.4040076509737,11.8596180684365,5.17796992235566,7.31643829136548,13.6155820155685,12.9660686826889,3.36594052387738,10.6739816654433,5.48593515459899,9.27906647195074,8.85291984055498,8.81695041448979,8.79907621786321,12.782181560778,12.1291490953588,8.46737192094254,8.92259548600681,8.96671317494513,8.44864563880212,9.60183665965118,8.83445471012524,8.87723844498843,9.62108120253644,8.79135500960734,6.01982244201966,9.49228159451185,9.87033382915561,9.275526749153,8.15469933710283,8.86518636873949,8.81935143580493,8.64390190826239,9.81202643697292,4.96609767465116,9.72600386814207,12.5493328700562,9.31118670703847,12.8930376656794,13.1404216614323,8.62867044660421,9.58204720241641,9.83593024388912,10.3727980238839,11.2448374677637,8.83336812908095,8.88273001353604,9.32157194891439,9.35469564584733,8.72340817939954,10.2609225886407,13.1836160091414,8.69816553244037,9.23516210952396,9.61067036436621,6.892907760144,9.28118722503791,9.6526641850255,11.664155356624,9.37737956997915,8.92203394099241,8.63598910510638,8.38035741683095,9.93827179092036,8.23953793486303,10.5952153223855,12.347863822953,8.0566469909487,4.52795412372847,9.56126061159927,8.52645177326141,6.31122538661158,9.3589975894093,9.71349848431814,11.0913262862216,13.2399109115295,9.50631182954852,9.01839070162059,10.1870569065578,9.01105353992986,13.6004573562398,9.78471309814936,13.961715943338,10.2009124532256,12.6889314482636,8.92359484498953,9.43669075774427,14.2369358947833,5.0435531655415,8.42955924697916,12.519204493095,13.2921544030158,12.8895926450313,13.5668542407199,9.33344919406071,9.30989378022221,5.35237939677286,6.52041008903488,10.9347955731449,9.19127323456231,9.28378735728606,9.98723720424998,7.87761599111093,7.30367019005285,13.361888385252,10.1432593252592,6.07025968483107,9.97348975699468,10.4477937539122,9.26496806976289,14.7322747764725,6.9495072003104,8.81047133765942,12.6012596279897,9.19573282288095,9.02445469090064,9.81816359825307,13.4914991176661,10.7102345607,10.3546256669386,5.18186298231566,9.17647540418216,9.89299560426424,9.49484342532911,9.60603029710022,12.7632920350735,10.2204684758192,5.79329719587837,10.871926586194,9.79023943046911,14.3159590188267,14.230015554228,8.50126799015458,9.91664680297028,10.2427178550591,14.0918172779358,9.04021020643013,14.9645859683613,11.626410647841,9.62327735482391,9.80702049869063,12.7817042919466,14.926891536614,13.8465371014883,9.26550035930826,9.74162870747018,10.112039209048,9.77285842662032,11.0202950104789,9.72442699554673,7.92506099951148,10.0306054857922,10.3141440200351,11.2351492434956,9.29413843436413,12.806038010913,10.07623362904,10.2724701835731,10.9507876447873,12.3694901464796,7.61798938366246,10.741845936173,14.0900739201436,11.364861665736,9.8391067638126,13.8643256967685,11.7121121336593,9.76038618956032,7.76933592557958,11.2556745601402,13.9478816767323,10.2791909224646,13.024907350243,9.91356993523494,9.41330061942562,14.6888862696534,4.34209841075732,12.3178837432195
5.04769023584793,5.24655904207535,5.24571796738351,5.43811243546691,7.44267493272981,6.82938159309848,5.96481441566318,5.91596909331471,12.2366385024533,1e+08,11.2917251343687,5.35216472310507,9.29406676091688,9.64774990746215,5.13270428247044,9.64569879623213,8.54081938234998,10.7466207529939,5.04464370648406,9.46757541407454,9.43532893857845,7.77350373199504,8.11918705977339,5.564647077133,5.5275569941244,9.33953493911193,8.47090524049365,4.61461237055482,7.21198442594018,12.0075456070374,8.25240514238472,11.7816202880295,9.95649570473287,8.88147482017409,10.4824699775223,9.03158340417392,7.63587554564145,6.65016570015532,10.0233968504223,11.2385230405098,9.812048568492,10.1387901091224,10.7360213003005,9.87694792460644,8.41801454679898,9.84524360117314,9.61867166246579,9.6946329694861,9.66472333814214,9.24785968345891,9.92130715967167,10.7110197262253,10.9998622197866,8.96093011077476,9.78499815925783,10.1956150530099,10.5797542656538,9.41108123829276,6.41854123581677,9.90165942969251,6.37456995655379,6.53506094788704,9.47334149709902,10.0842452247632,9.87758809201703,8.9113172974718,8.43903098234237,9.13285139791835,9.69408282700043,9.61857582347185,9.33069808402653,10.2384901130138,10.4553570667382,6.78023967330976,10.2695350543194,8.99215349126576,8.87894592526387,9.37060537471905,9.56116396789844,8.83216837830618,5.95220250372948,10.3901108607637,9.45641119587896,10.7634426774074,9.80997034368041,11.1412952155829,10.2013643630537,10.306273807916,5.83078956937507,8.85466419984664,11.1923799215626,10.2515647846871,10.0700066206546,9.33003605265294,9.24037785678493,9.44347009299191,8.08989247909294,6.27906093623097,9.03307254340811,10.4753545194788,11.0748278492746,11.1179653321947,4.07725370395968,9.83289814136704,5.51343272778393,10.8745617321335,6.25064679616862,10.1895223249247,10.5113957361328,5.82843701756172,11.9620837962369,10.6118369390371,12.548695112984,5.42621236797699,9.22317107247844,7.17160346885419,11.0482401257581,9.31968897412554,11.3405575738574,10.6230905441191,13.88241998602,11.1435367238652,10.553248401675,10.7109677317541,11.3067540922136,11.396427335602,5.78986354729304,8.79220936328634,11.5225812704363,10.7178949688153,10.0872589732332,11.2872449407377,5.97913795346997,11.3454219329844,9.21332268046131,7.1250519765594,10.8524281100245,9.71202262893935,13.492189180127,6.38045708723117,10.8364027650862,9.58327790586328,10.8919940004874,10.5894285956663,10.8761002181111,10.6226350881143,11.5660461922865,6.90232489957072,10.3862585479192,11.5039693248994,10.7769449320067,12.5939734666162,7.99448991809109,5.36487904787344,11.7375514024832,10.1373800465014,10.4498984965629,4.99429916431658,10.6981389158911,6.30552172250107,12.2525567585241,11.5550407395767,12.0435829792183,6.24593529157639,7.10753624365674,5.10524465028185,11.4387374432816,9.83302366808189,12.3059009877859,10.9812545433186,11.1782038361633,11.0388365976497,10.5753896060336,10.8561830982345,10.1681920198121,8.46079751811749,10.153821038551,7.5773492137777,11.0228058589619,11.2726008409299,10.483283882849,7.30258391157376,10.039455432145,10.6432329531553,6.70810667965565,8.07755435194808,9.18821688180488,4.79457830744653,8.94571909274205,10.5970448098447,10.2246474660921,12.3612587428978,5.91816411658982,12.0971262126763,6.747411631128,10.7481145035065,11.1905579716801,7.1684461965504,11.8455955116904,8.81720617811914
11.7538783947662,12.046763726112,13.6291015461256,12.4078513786212,10.9702869010999,14.9827203064951,8.27065525566293,12.1488026349413,4.57544629850175,11.2917251343687,1e+08,13.2124209877193,5.41632766351895,8.11988681212591,11.9923993763685,4.72897341757527,10.7203693128938,1.65317173380306,13.2695898615848,6.71895643457655,5.47345704713095,12.5581618670791,8.79707888285294,12.8369828954551,10.9594243135842,3.72966999617448,7.42336530066384,13.2055067042522,11.293480660227,3.67545268916125,10.1993697741925,5.19699441815225,9.01307264856169,8.28254079695076,8.0869133925018,8.84121107028063,11.9289702376007,11.2731806409658,6.61526986388074,8.91531811745508,9.31726141345124,7.9349433707362,9.83930931349668,7.63327012029605,8.06095921428906,9.11685087757365,8.59256276542696,4.79735966412263,9.59220998622745,9.09185957060009,9.01406669540366,8.00937877827473,8.83931038462445,8.94962755547947,8.11527195457452,9.91607522639852,4.39683134685721,10.3011071150565,11.5869337327815,8.85158437754172,12.2036266147422,12.8033866924848,7.76380305161745,9.83258090481801,9.54702356865432,10.5699937388452,10.9565733421258,8.95190153578104,8.81810404599893,8.98299943998033,9.09646686422122,8.06093402343727,10.5955839346438,12.8735747177746,7.99843958187438,8.62539016310902,8.77379345766453,7.0351510634587,9.07935575005053,9.67542715634623,10.5628723637962,9.48056856526327,8.315916979392,8.18244694997338,7.74460311241564,9.85584536655515,8.0203202668803,11.1186613800057,11.3645593270987,7.46036893308554,4.80424630447115,9.30013497214621,8.03804766041152,6.2011624343051,8.3076590209317,9.39217183251047,10.4090378989583,12.6025032045152,8.6218816165176,8.08855886120912,10.1380164979467,8.58209121387339,12.6776952811809,9.59571586106509,13.1583450049393,9.56851884911569,11.3631120547326,8.34465068600316,9.43574636486065,13.8528856015055,6.38283650337225,7.50133354848754,10.874318221186,12.4706453327852,14.0729508536615,12.6158693185845,8.7665581296989,8.24465034332738,4.44991275955528,6.7857330445487,10.0773078481067,9.31087489237926,8.4738455158596,9.68911232498308,8.53695662667319,7.173455753572,12.5057178413814,9.38171101461887,6.19082305977604,9.31257678558521,9.72004322324339,8.64432460649654,14.3049684873952,7.8805649528433,7.16740673497621,12.1954542812197,8.19002078508018,8.4292453888598,9.03375842249043,12.8312709551739,10.4399702024412,9.0010104161219,5.13037353080804,8.93312951107291,9.50243782367719,9.15468823170009,9.40209740608436,11.5525651063229,9.8077067354907,5.248250935877,10.843301078685,8.62718801254687,14.4261971007494,13.6538571857754,8.29100339650017,9.92387596013686,10.1470909379031,13.6796957849001,8.01324169545892,14.7180513279916,9.96771752033743,8.77744890384894,8.89518558136562,11.9160405219548,15.2212716667343,13.5484329516108,8.67874582977401,8.79238515137674,10.2946070682057,9.2972848650149,11.0458137712705,9.51562991072937,7.86930733149888,10.4075847204248,9.41956958128049,11.3613825086511,9.20901814899698,12.1119108489983,9.71235547477259,10.0313690644924,10.9908074273175,11.3416081970706,6.28013441154175,10.4384792697943,14.2719652073875,10.4987907205727,9.63549595918944,13.2252531705254,10.9389426966232,9.2961415996694,8.04626049299968,9.62359799645114,13.832477798634,10.2251514768092,12.6913120676993,9.919543621321,9.81052573656544,14.9785506274524,4.65438147640029,11.6074228923382
3.9685349687815,4.11643536837051,4.33422016490156,2.21027165879231,5.94919051166882,4.89149139824168,7.82450686220293,3.2987769602382,13.8159274815064,5.35216472310507,13.2124209877193,1e+08,10.4711423154997,10.2470073297106,5.69653583782793,10.9483274818498,9.32593585063531,12.904596330298,1.67360580461388,10.5494178866513,12.0287792937357,5.04606735528673,8.23615202381945,1.53218811616745,3.867293189058,11.6963445191853,9.36589135211396,3.17582874123979,6.84901990257438,13.4922302403548,7.50221845733899,13.7103770273707,9.66446376554653,8.89818421711446,10.3699579857426,8.95315984504081,5.60958583552795,6.06022105599202,12.2346793920076,10.8339575502754,9.33088772420516,10.1240310894129,9.99284858086796,11.3436112600268,8.82011668190496,9.34516702973116,9.10441829578449,11.7993304569242,9.03542110256864,9.20206819767322,9.57938213775917,10.764972634142,10.4695613904898,8.78712372127674,9.74317204478804,9.67799022942483,12.3036926039331,8.67884773941549,4.88921958846293,9.58822601986292,4.269224553397,3.69612378721408,9.70236745966693,9.5189370114153,8.92595977618197,8.11169631791641,7.42165226636696,9.04096018221168,9.68172055833362,9.361094964047,8.68395140792502,10.1042447927975,9.49923388065332,3.98591772964025,10.1867879814747,8.80138592499279,8.56170253460112,9.70595147241121,8.79971910211794,8.38284536903546,5.42724917891199,9.96429377029775,9.35827499461411,10.6827300944122,10.2450850067018,10.3587263361065,10.262261648978,9.2459759776127,4.5291086640453,9.06041259785002,13.3007500028482,9.68089579794317,9.96801361732022,10.2603508729554,9.23277480832819,9.38512906000404,6.91494120105415,3.03026494980565,9.05467928440248,10.3500834311827,10.3174924542505,10.7730051058332,4.05697148792312,9.18354116932825,5.86473149049819,10.2062779134621,5.15840537890847,9.95381617340965,9.87411412671101,3.65214787801482,12.4461684556305,12.849070625956,13.1147707020365,4.10797657907547,9.41762766736525,4.85296634614357,10.5650295249513,9.34803217840198,12.6467620333687,12.6606368403345,14.3243977179164,10.715373704958,10.3950836894823,10.1522033353113,13.3687657581079,13.6132431228424,3.6603736468129,8.58855812251343,12.2846059471254,10.0457493698086,9.52352326743941,11.0257497113385,3.55973671877155,11.5891523085812,11.6255358996073,5.6142449081833,10.4919600217289,9.42977510561311,14.225734707506,3.86311347117303,9.76917247558049,10.6085721871431,11.8933285055925,10.1201103209924,10.7173362980039,10.2353387477227,11.0328217847073,5.18334297706876,9.62509297963769,13.7891521650069,9.57380673577506,13.8451335706527,5.24211827362961,3.43360393154789,14.017090632006,9.68260882993417,9.77113439388423,3.42542183335259,12.5876066673872,3.93242055600283,13.7276880896443,11.0988728571691,11.9221613790569,6.19141478372071,5.52441187804071,4.07280298976251,11.1234589677289,9.78830455502382,11.3268691874823,10.2304662188196,10.0029655215112,10.4907966488288,10.4829860761347,9.90888069697154,9.65097980119065,7.73221966618153,9.86012496321254,5.89396995491083,10.3564589485273,10.3025124828657,9.45757433585649,6.41032066290126,12.3238587867219,10.1928947623589,5.14283204723951,7.3560258352402,8.79560750349236,3.26342710831269,7.75899939143254,10.1011638654131,10.2014281746204,13.9203569715397,4.1962337576189,11.2294951438986,4.29224976545767,10.0101318879182,10.3639534021577,4.97311514275848,12.895532266159,6.72643933687358
8.92050582694505,9.27459280849145,11.5826251835368,9.71348691628536,7.97848201854751,13.1383970208381,5.28540467268519,9.13904624833133,6.760120256406,9.29406676091688,5.41632766351895,10.4711423154997,1e+08,7.09241216974612,10.244407142342,4.03258124557925,7.8705207091263,4.91617032893243,10.491769498035,6.71246530833879,5.27239340258706,9.3210172328093,6.20680296062129,10.140692995385,7.9961025563825,5.41012202657041,5.52825787725975,10.7008845047743,8.19041783515348,5.84857070537348,6.61734698542594,6.18254394701108,6.60747945965697,4.86809388788437,5.46615527935023,6.91799058134809,8.90174872943584,7.95123946916572,6.09479093389194,7.44413953659105,7.89191565727463,5.68729221485415,8.07802062570139,4.98097216745428,4.6070805395462,6.48954591451761,6.16006350471914,4.29999905366163,7.48170923563169,5.83638978355487,6.50664601816236,5.83882292941155,7.18964759350618,6.99854711332668,5.60509864695479,8.00476501422126,4.52342835364143,8.28249326028694,8.38913329391484,6.27741922234074,9.39659470439535,9.55451174016348,4.93259930274221,7.82776954310105,7.34998092951914,8.47489901209571,8.09106505654387,7.28439279318434,6.78371998299042,6.25263056523565,6.29595528295226,5.50426137655656,8.97305570087013,10.6859229672664,5.45328556831511,5.09817946935662,5.42838490528727,4.70188736378552,6.45596608358445,7.65309402537586,7.255349570297,7.62884129759073,5.0799348863807,5.64603562265369,5.30035923365287,8.16213798560189,5.66002833126606,9.62031410953792,8.14152429176111,4.9205552040254,6.08031903818325,7.11856253278171,5.92293263870248,4.66321854805909,4.73211834295685,6.88340438047131,6.8045828008986,9.61967226484109,5.27119275189409,5.23612317144853,8.02402296195599,6.24607691174209,9.98146017362156,6.9386458636244,11.0504973779779,7.02566903735846,8.16935441890192,5.66745599374671,7.3649096257133,11.6452733750716,6.75306843534723,6.55637936402765,9.20830645323638,9.94677137672499,13.4331714509357,9.37346757257141,6.38740053752716,4.76869766074777,4.21329062837798,6.53496361970618,10.3615947071462,7.46190539409119,5.56338383012856,7.18176132622396,8.98953750177224,7.08199033012647,9.3573210820841,5.81971898575562,6.93589163276855,6.56097962458982,6.72824999043152,6.4601617130683,12.0127482502785,7.6342367485359,6.02853885511685,9.32893487452719,5.16514510602469,5.26673224899409,9.43774152332272,10.1590692518361,8.0024109692951,5.54466086993315,4.29915966301946,6.65918955194272,7.28756755206797,6.61658061222235,7.27157955816126,8.10116443026166,7.21278885463085,6.87207011698881,8.70686278957567,10.0766735113893,11.7186638642684,11.3193625256193,8.12823983732568,7.61587853467071,7.88825008368013,11.2802700125565,6.23631665104168,12.5684925251014,10.0915124518192,6.51118248913744,6.93862907176261,9.82211670491142,13.3514022902782,11.2833661337767,6.4191406855967,5.56477136266532,8.81697998457147,6.93879439285147,9.12780532194409,7.37304094065629,5.77453851456989,8.81820037039829,6.44547168166714,9.00386987980081,6.86697147657609,8.55353915828932,7.28536648512724,7.82848175438371,8.82708165481265,7.93874441904627,5.54637017214424,7.97953822346605,12.576698474579,6.98340693454868,7.13378861723223,10.4720363414954,7.69775001840717,6.55901364486978,6.17540639207324,10.0849029585607,11.7755682191578,8.56323665513817,9.54498084882362,7.90160245878786,8.19850727758914,13.2064458019287,5.36331917965894,8.59885144414677
9.5424979025716,8.84773112101909,11.0215861320077,9.54764439790218,7.01365025612562,11.2837651194271,6.98691786988247,9.37705632214288,6.72060774254931,9.64774990746215,8.11988681212591,10.2470073297106,7.09241216974612,1e+08,10.3182278831695,5.38780452472564,11.6749340943512,7.84984777629746,10.3956726919169,3.74717074107161,9.97466891081303,9.69292981125511,7.6062403157521,9.83374732623764,8.42695485949797,7.34803823909427,3.34686550214166,10.3533000759962,11.1845695612488,7.84400094933655,7.0017586549267,8.32943599206997,5.72562182222665,6.77694369561966,6.5935358769469,3.96189903879389,8.84968405018333,8.3970364321126,10.8077597713077,5.74691849052975,3.88381425492612,5.49577142350482,6.0088942330908,9.62255754836648,6.39557352942995,6.41917498207946,5.15849235195429,8.09609658046167,5.51589696352223,7.31954879371342,5.73846105376951,6.23367892011964,5.64756862089205,3.93557677079445,5.56335651541358,5.98724593241536,7.53825981211038,4.85716945546158,10.0771656024097,6.18766733149626,8.83538957986445,10.0336394637819,6.40921581882075,5.28889891046896,5.80523340281955,5.64941077385356,6.74602524500352,3.98541878250737,4.7340290503422,5.86549233036495,5.57794061071944,6.15180494891312,6.01780779010114,9.16967910686829,6.32421821384921,6.91939805573875,6.93474669810302,4.67183345128299,5.45021269392504,4.99758667107257,8.45185935572615,5.58557100152149,6.76657795393176,6.53446993301186,6.2456049959624,6.60630569788164,5.64022318406781,5.95402195549777,8.89297856636097,5.5243926456013,8.13639735064988,6.12471169014428,5.45570865968893,4.16798305825496,7.97132661461746,6.07700405575244,8.09779548624373,10.0864071600508,7.03540801435946,7.22745562472352,6.70791262619998,6.76714218975943,10.4400135131108,5.89258864934578,11.0898864942835,7.46336174640488,9.57009850782369,6.1405121016796,5.25419567117292,10.2892572343798,5.46373774127985,10.4055360777629,13.6707677672539,10.4280529792698,9.55615685679634,9.7219389242457,6.98410575196302,6.91312290446571,7.92921923101708,7.60779042019982,13.6375852642581,5.69312738363883,7.50200582412117,6.65947319264063,9.81169764677255,9.83034241261289,9.60553170563395,7.02913232136875,5.63070324879339,7.23894728623331,7.36718707277038,7.33655908465579,10.9858304415313,5.24970340182053,9.67073866848468,8.30478369271415,7.75139452468623,5.98181046343137,12.6637801960964,9.42411806871704,7.17000279110377,10.067730730235,5.87650316153275,5.80482007921933,6.96232045861687,6.61046900749304,7.05153950921417,9.71145565042943,6.63720158033531,8.35411487275832,6.77406417301659,11.9827802582384,10.5002471604055,10.2897968098923,11.1962569100858,5.67344094652023,6.30756324215032,10.5268604434527,10.5362712492868,10.9800286852594,13.9000433869808,7.80720821578415,8.91285083289302,9.10340968093542,11.5979823100307,10.3014407962223,7.14700961824978,7.54245871765051,7.18392802709211,6.81505734518354,6.96231748150838,6.56624442128167,4.85803429333692,5.46320323751001,7.62975845227174,6.12364811701338,5.2769145097958,8.917690286058,7.00212935479678,7.02553059799554,6.51161254222967,8.3800802780557,9.63461237672577,7.40993613624682,10.3707693625636,7.69379103462073,5.63997638120296,10.1986322393193,7.66863686580711,7.13413495316443,4.3750763617582,13.6214832961137,9.96288106957081,7.59979252714676,9.54915531775345,5.78053282466935,5.3136864060615,10.7210357433278,6.38399783229069,8.6326913767163
6.58167161476511,6.61477281934373,3.76338756912354,5.94008466604327,7.78669675285133,7.47311330656922,7.4007448172724,6.21846924508003,13.1818223223719,5.13270428247044,11.9923993763685,5.69653583782793,10.244407142342,10.3182278831695,1e+08,10.4567146170164,9.94735124187662,11.3520282092966,6.161452103017,10.7722076759975,10.7288926384581,8.60352478908309,9.04142370091876,5.8569013193229,6.616639756659,10.1724503588146,9.13184350924539,4.91984106339081,8.0414745206639,12.8970579319342,9.07251708624797,12.5779185102555,9.88076902573298,9.4611644829363,10.5821396687113,9.43056238226428,7.93043713340642,7.80734405008276,11.1332627401208,10.9027339948711,9.9787680955848,10.230548047507,10.5037692683269,11.3982038957429,9.32338196676971,9.71724982180356,9.40553409388813,10.7934322962559,9.35306850266947,10.0143509623179,9.85971733529507,10.9230752883886,10.7148859051127,9.38152461919651,9.94884541012535,10.3085874365244,11.2848616293631,9.53596453059192,5.94193351329835,9.59398020437715,6.4060458607423,7.08892862342291,9.78212851525539,10.2801350747977,9.04930110526765,8.99017650138318,8.65116172258525,9.40062479395954,10.1329800115311,9.62431575564757,8.98892835992167,10.1279113535602,10.3754477391156,6.66399119857539,10.3243538982341,9.61993705023759,8.99887137127995,10.1123239206947,9.00723395837954,9.08134763311591,7.13286111501245,10.1899891656909,10.0677112150873,10.7263306774701,9.70820150756186,10.5604425400744,10.3864160032596,10.0735876709264,6.79513962329432,9.17027918774882,11.9191939545216,9.94330621193486,9.91421690694579,9.3731421331548,9.31222021721319,9.81878374088092,8.50618244875371,6.68180953361061,9.08280139893044,10.5349290916777,10.4741729294973,10.5379468846262,5.44372390710485,9.51155943726391,3.68466545082973,10.4231965438299,5.96740495093284,9.99593566361304,9.96473794919933,6.86078688433368,12.2345990128806,11.5911739259906,13.7654239165363,5.95568616935763,9.36659007301558,6.36764547992034,10.6764485897747,9.51589814990107,12.1679415600112,11.1260559800202,13.9012823921839,10.8842683574958,10.5647124077646,10.5088514542265,11.961327230379,12.4567503849215,6.72982502213091,9.00754904755248,11.340175393119,10.471576794735,10.0799865400463,11.0479703159116,6.82519117576652,11.1941222371542,10.2358165535804,7.89869835742152,10.4704447301401,9.69938649407399,13.6771294293257,6.15967103607492,10.1187921283422,11.1195602214525,11.5570352313674,10.1565782567265,11.2531688622629,10.4504294069524,11.1723643680581,6.13655347918945,9.80351784598647,11.8788465309362,9.95187097061019,12.3268615894709,8.8948394409519,6.20543541593204,13.2264779403094,10.3367786546933,10.1591695827899,6.61616679417555,12.1836546151958,7.02224464669492,12.8803268017326,11.1567420298703,11.9739677557417,4.23810407987552,7.84971808421977,6.67776675309124,11.206202692191,9.89243433401193,11.5819604471115,10.355393725352,10.343139909328,10.60858425569,10.4138021000451,10.062309217538,10.0654325984004,8.85230538296014,10.1068812878283,8.21415485300201,10.4430367815604,10.7398565346351,10.0587861787612,7.90141416909037,11.1895230639696,10.7670318344813,7.33411594007996,8.62269014788671,9.74412443417745,6.13638992853739,8.35583887308272,10.4570699705526,10.3125237477797,12.8291006934823,6.99252410636499,11.4151599123557,6.90137806163749,10.1518374019691,10.5803339486418,7.52607089654421,12.2752082016969,7.69829550792451
9.73483216221594,9.83204509209556,12.0640121796536,10.172570230095,8.54110341473018,12.6914942327598,6.20730186782044,9.82092610776719,4.36168704560759,9.64569879623213,4.72897341757527,10.9483274818498,4.03258124557925,5.38780452472564,10.4567146170164,1e+08,10.1230689631156,4.60257264910808,11.0700896616516,3.85153544451969,6.2412441716978,9.92341720912635,7.41892040654777,10.517922797075,8.59440290244445,4.21093624154921,5.12962153925548,10.8430305469082,9.97979545750681,4.48649401073996,7.57950968500468,6.4733554733387,6.9018627704755,5.86972855050728,6.59097040189562,6.47826095816279,9.80978174546842,9.06151860071886,7.46388264638013,7.37147907924023,7.27648224329232,6.18029951025868,7.87119377057119,7.37196776904635,5.66549558266563,7.46074795949169,6.25069485466475,4.29355859274765,7.16430426917843,7.52131651813965,6.92896172181875,6.23119805163856,7.16495907857474,6.57409514485214,6.31649497269312,8.23462270515675,4.67934485534269,7.68507951507742,9.26688154861509,6.79787549942994,9.84656052846066,10.3220652536838,5.74704650759275,7.6614482135105,7.41327304285689,8.1931400021544,8.63130358625337,6.70030352679229,6.74281775430997,6.72740584740953,6.56788521707899,6.33481187235477,8.76364205893722,10.8386333250171,6.44832661771159,6.19814018429957,6.58400954697026,4.26100757238272,6.58900981596085,7.45324265765824,8.29202854062155,7.3170358915937,6.06635279848498,6.68525978065637,6.11017025299734,8.3863760278105,6.38560592761837,9.16632609810569,8.98693890152859,5.05107646570848,5.33008060136011,7.41368736022761,6.37156183122241,4.0147066306391,6.1495606474115,7.48280585029382,7.88255068022086,10.4104776671227,6.5314004296474,6.87042696259376,8.18514323433183,6.83143493888805,10.5504213266404,7.32134200132079,11.2556575751199,7.98889421234544,9.13244457365458,6.49519218252911,7.19951100488121,11.6185061943006,4.61382341535956,7.44892659605642,11.573378732195,10.2215535315456,11.6833359288869,10.2589419961751,7.06858472439526,6.27422255979554,4.20410307771509,6.00440905653918,10.6971912302624,7.48825636510209,6.87179796886934,7.82525548052151,7.98337557387505,7.29936385918781,10.1320095803997,7.0939456879965,5.57822090983615,7.58381662671667,7.96028293626205,7.42957747309509,12.1651766564844,5.86872986808338,7.16801435561533,9.66462748980981,6.63561356472234,6.25337701221591,9.54650841964574,10.4893812015958,8.48765983583318,7.94215417568456,3.59451255834322,6.87899416522508,8.15682655711603,7.2803630575981,7.91168280989527,9.19327109632204,7.91755930192506,6.14588479383527,8.73571039735894,9.46624791079413,11.9870215953459,11.4725071300998,8.40411877118751,7.86093488054538,8.09221978859121,11.4504414682315,7.98079692732742,12.5253729306519,10.8990081096015,7.76448260744347,8.3063380927886,9.8871497148427,12.9043366205552,11.3497143469259,7.41049986223694,7.01129532672433,8.92004185611585,7.5903526761685,9.19119562649478,7.80997902157227,5.84408072744184,8.19972890266891,7.69393290775135,8.8712965193065,7.07450540651818,9.70468368895298,7.92787452755675,8.28569937647694,8.85490580311331,9.2763961898777,6.14550284036086,8.80133029153723,11.922160991148,8.40670969981355,7.4052891126998,10.8711937784043,8.76158380231904,7.34384102688657,5.77196059726192,10.6568308103585,11.5325813703382,8.84356082378682,10.0761385834924,8.0256013369735,7.6882142699247,12.6422710248095,4.11481118097594,9.1537621326958
7.47900479376549,7.67233602935503,10.5141866986793,9.49890767169424,8.94923875224545,11.7059623349939,7.75829115042136,8.4821196073869,12.5842984175606,8.54081938234998,10.7203693128938,9.32593585063531,7.8705207091263,11.6749340943512,9.94735124187662,10.1230689631156,1e+08,10.4222463843084,8.61539657825138,11.7237963274444,7.22998344207996,9.18109652862228,7.33566395598082,9.2169379796282,8.15044099324387,10.7291580611947,9.48005310482153,9.90464456387165,3.5847612175003,11.5638696238736,7.36439761982227,10.4382181240564,8.83713048421577,7.13967233629822,7.92841611626201,9.98519463937273,7.97832769386347,6.5148329594956,7.04078132741789,10.4142482272324,11.0341756173583,8.94236757585519,9.86595673903558,6.18173728061927,7.14038483778224,8.69987494178013,9.19750420330478,7.95746361848187,9.31252706633899,7.25984253117163,8.73635463835272,8.73845353304925,10.0641192608925,10.0806411059553,8.43305389414478,9.80628881138674,9.99512190976222,10.104209505119,7.14285112939928,8.25880019043535,8.90841702083789,8.48647924142244,7.82441395702599,9.53250269538568,10.161074756344,10.0030993580374,8.85505749116173,10.5561326771937,9.37856469538478,8.46028328193731,8.95641863811974,8.3790724033305,10.5418266764823,11.3072447167508,7.91239575790593,6.97023547856177,7.02986384132038,8.91322326007687,9.400936442367,10.3362909054371,6.86619768002024,9.56739314622081,7.35726551713585,8.58869291693345,8.21619051247084,10.5270075577998,8.83295882474281,11.2665185680739,7.29085671058771,8.52762536351243,10.341435394176,9.52935816888515,9.0004609390908,9.79431887380211,6.84763531793801,8.71314587519041,7.66297821355301,8.69991735157489,6.93991010504806,7.7062023005269,10.5836868944595,10.1325558928835,8.44701310369347,9.5546214122404,9.95247641838345,9.78018343967816,7.32929462366789,9.33557292644668,10.9735134124738,10.6277506388772,12.5215382978404,8.21554223118166,5.87005366958909,9.97032118992013,14.995606729129,8.42846712446173,9.19919437598487,7.61794894263444,9.72605760063356,10.7945395036605,13.1704196724192,10.7166718365469,8.51438518631168,9.79940182835108,12.0595560360933,9.89237256312487,8.35922561844613,7.92217097787815,12.8203546167359,9.02706557051494,8.4121893997145,10.1297317932249,10.7131855042132,12.3059694157872,7.70963744682332,9.83029758070058,8.51276973762871,9.01438055613723,12.8595708387695,10.2787495731186,10.2498245357802,4.83208199995043,10.5156638435908,10.0255041230511,10.1096286765034,9.60790644190353,10.6672320907201,7.54297913901462,9.89573759602521,11.4501099238064,11.1296641715092,13.6689292588471,10.6068204293738,10.1688050725011,9.10267320551679,10.6116865456877,10.1085331967993,10.3428945179391,6.50432679219879,11.0677718558367,11.2592196284762,10.0210067113664,9.16649619285984,9.80442623285175,12.343766041167,10.5102109898804,9.95905127549041,7.856896025079,12.0283348207679,10.3399726447638,11.604492826109,10.4810584751421,10.5942497594309,12.1672661133338,8.13889610589867,10.401093115329,10.0107935050997,7.9842884286155,10.1039053033807,10.5192603262319,10.8339391648854,7.55833652727592,7.85062713055961,9.71473585234312,12.6755899561623,7.62145202210152,10.5331438102315,8.93037940558864,8.30684362637831,9.01306501632556,10.5352967268994,11.8956461543958,11.6220108234359,11.4102292055093,9.54485125066263,11.2398916297053,11.9073089907332,12.6692264553947,11.7073568318099,9.86085010075761
11.4942776299864,11.7591312267887,13.1129633341126,12.1411533486443,10.7891146576987,14.8015459364932,7.68824509281679,11.8759530929466,4.87473681271967,10.7466207529939,1.65317173380306,12.904596330298,4.91617032893243,7.84984777629746,11.3520282092966,4.60257264910808,10.4222463843084,1e+08,12.9689934502326,6.83868903720249,5.04678053882059,12.3607532036592,8.63642090350718,12.5465219027354,10.7084151259394,3.69187221838695,6.94413854541724,12.7963204735085,10.9597204284278,4.08246400498259,10.0791208438689,4.68452615892697,8.81187215873069,7.93397213851715,7.8794820617295,8.60559349811211,11.7384762484611,11.0043148337414,6.2067869935542,8.81201892844238,9.21148302351478,7.72611465566558,9.73927056644147,7.05218779893322,7.70970375324816,8.92947145019847,8.35755528216401,4.33952202224131,9.32541045845523,8.67749482568697,8.81456608341547,7.80907479885673,8.73077838907336,8.75132531272664,7.87193264323989,9.71197575486737,3.60732331723213,10.120454700761,11.1733382181896,8.59148472336158,11.9284203405662,12.478146611787,7.51568562156564,9.72190675307976,9.24600242177396,10.2902303889822,10.7723731689279,8.72465201283641,8.62063044329417,8.75410051482837,8.85805027236237,7.80029370275149,10.4851717507048,12.6801449135772,7.76415744188758,8.40456405932805,8.53376444966161,6.69947743770476,8.85447037351318,9.44090201058425,10.3303599839498,9.27849182102798,8.10316718970101,7.96531463249054,7.33046721209067,9.72541025210754,7.8119102093782,11.0120129756757,11.105818915541,7.05588232207153,4.2162805577213,9.08658157063044,7.81997381737997,5.56108617182573,7.96142811576324,9.25902939329445,10.2522254153717,12.3353235450733,8.26703931960904,7.9588739817053,9.85635067752612,8.25597214210995,12.2399018379212,9.15957979413639,12.5224870971865,9.30217640573241,10.9914689283844,7.90847654015116,9.16773794243203,13.6661811004078,6.60587587271661,6.82038610781686,10.8481873763593,12.1922397257339,13.8254439323207,12.2916271152267,8.5308138763464,7.81187310907063,4.56158622057825,5.96707109155974,10.2586165682669,9.02732803002691,8.15316792575298,9.41482594550213,8.09457509899713,6.53684244228017,12.2575300143786,8.90909580581914,6.09193668494895,9.06337579797072,9.38757669552478,8.39178465225808,14.1037421302331,7.75631549436397,6.43504641927706,12.0124567622774,7.8537543953357,8.01342771556771,9.23856799686783,12.5883487871945,10.1668500925973,8.64928796823594,4.98947263934428,8.58966743493417,9.30741409527599,8.82589359618062,9.15948155975993,11.1709554984383,9.41936401894977,4.57930876500312,10.635584076021,8.86446631965691,14.2236261542697,13.3938741004848,8.00547662434076,9.67307869522902,9.88282336411022,13.4191127349304,7.47718012123831,14.5062746668451,9.97568550358255,8.56825866320069,8.74093211392381,11.3014901053531,15.0049866277418,13.3007832486853,8.44685953241921,8.36798008257461,10.1930924021867,9.04523864700377,10.84536440867,9.24935277599548,7.45522782058439,10.1897096076927,9.13526498882845,11.0986676662652,8.81629135246038,11.8781235252411,9.42926264418833,9.85858319606119,10.7687286783077,11.0066608561445,5.82334894967204,10.1544974150473,14.1013145973864,10.1720661074125,9.48773111406602,12.8938947318451,10.5472067440907,9.02705960105531,7.68290903380632,9.62906124115849,13.6305888353333,10.0892302354652,12.3428406602657,9.62821413654367,9.61662284737699,14.782741037007,4.73583812346859,11.405626281314
3.93049898658088,3.99252561733454,4.8502702158934,2.67269564045174,6.36976415470278,4.8694391165912,7.76696443050781,3.57606832154485,13.8883990551134,5.04464370648406,13.2695898615848,1.67360580461388,10.491769498035,10.3956726919169,6.161452103017,11.0700896616516,8.61539657825138,12.9689934502326,1e+08,10.6885832559449,11.7598433710489,5.22989257294637,8.17621365722338,2.41135967947986,4.25000194951365,11.8404955468951,9.34731615871425,3.32801315635148,6.47705887037053,13.5879045167946,7.37173171594143,13.6611226717429,9.72310040899358,8.82205928230335,10.3412326552321,9.04066787431241,5.74916074316808,5.88613322950753,11.942533952072,11.0119552777502,9.52976990680605,10.215604219861,10.0517912890961,10.9717129724956,8.7024251268893,9.60344073281012,9.26043317527307,11.6175671111729,9.06484084591458,9.24160817748255,9.62541132856932,10.751296235169,10.6222492166486,8.90985523562035,9.75825431594757,9.87037176290471,12.3669108220995,8.72555114596993,5.06327029303282,9.62974629871002,4.59558805835227,3.76038517985156,9.70673505134167,9.48716031157481,9.48007501226914,8.404655126655,7.64574916421773,9.19536442819062,9.679027450326,9.40097053279596,8.86264417210252,10.156474586178,9.73719115133592,4.98696872961726,10.1587130201138,8.68935485625795,8.48274857000817,9.69586714197024,9.05641007337253,8.74855672918374,5.2681175396772,10.0002963812985,9.27656648323588,10.7041145701806,10.2436719274052,10.7549339697812,10.2838904922358,9.55641029353506,4.74961196367974,9.11970294766002,13.229772732037,10.0296424630028,10.089280466914,10.4006210674012,9.22655471997857,9.38884917370644,7.24061111405825,3.58982607412009,8.97981035832555,10.3802532277508,10.6079017235882,11.0939677167802,3.86912663015436,9.44208044475245,6.12653526287593,10.4910205444405,5.31914255844519,10.2223168014176,10.2634645973331,3.86013398188908,12.7468458169116,12.5861769937291,12.5763554135895,4.65061767211833,9.73199235189872,5.25803599517639,10.7237857455262,9.40603585756203,12.651406581797,12.7199301465317,14.4511571223277,10.9518604019901,10.4899209333872,10.3799712694959,13.4059609582824,13.4232796573318,3.79908297118043,8.68477830360348,12.7219684964073,10.2359177219105,9.59705000822061,11.3036229281212,3.90138534454461,11.98584306851,11.4059249974209,5.90434500726797,10.7040023209947,9.66205777437307,14.2771657109621,4.62066868925038,10.1074153614647,10.1813084195772,12.0628031167567,10.413561038297,10.8576515996378,10.4397527362442,11.3311480052325,5.49041332656872,9.9658472461501,13.8361007940009,10.0071093973794,14.008108540213,5.37026635185095,3.61629479633512,13.5772403118644,9.91658729139357,9.95225691151478,3.6137761222292,12.1550702209847,4.0492555398611,13.5715225488291,11.4190042396201,11.9847727682726,6.62643776747811,5.57187908588389,3.99720806795569,11.3695088575901,9.82569748961281,11.7386782716623,10.6176724404724,10.4464215434249,10.7705973633673,10.8292618145752,10.4186978575441,9.74013478076373,7.85125782896169,10.0612565665408,5.89172766563975,10.649908695411,10.6395907814631,9.75139873253476,6.42525321941871,12.0980792811328,10.2917971168671,5.51757574802962,7.39666208063791,9.10015166826794,3.0652675928981,7.97447571992818,10.2359430866263,10.5156353677837,13.8457925639513,4.63832700111851,11.5916531349198,4.76987704492213,10.4458373353941,10.8193216947486,5.29259501740528,13.1117380590981,7.37932224776482
9.79972090413588,9.47576567200064,11.6577067618451,9.64616929546617,8.05687892986769,11.4211241826083,7.0401041400465,9.67618078365344,5.07219073247321,9.46757541407454,6.71895643457655,10.5494178866513,6.71246530833879,3.74717074107161,10.7722076759975,3.85153544451969,11.7237963274444,6.83868903720249,10.6885832559449,1e+08,8.81644424901023,9.60147970848537,7.84403477479499,10.1292140308327,8.4051496327875,5.64363070996603,5.16892049154317,10.4829409654112,11.3944474384211,6.20517483905297,7.84995069061714,7.83637519063616,7.17616967794448,7.2427886020129,7.81498061464271,5.75654885088954,9.71365365193044,9.31077995399468,10.0014569901893,7.30000007450735,5.80180252266589,6.71177376216677,7.58122683517463,9.41021235956107,6.89993915026863,7.7768817825645,6.66909036759475,7.15497272562247,7.30816659932123,8.41111411691202,7.24722709419758,7.26156433960956,7.12457496719006,5.67996153231756,6.93357549433631,7.72619957081335,6.68799950756105,6.71909830823542,10.240468897736,7.5636125199184,9.5962790206851,10.249948890699,7.06558798138282,7.1176924652258,7.47467633030032,7.47682026195565,8.19623187573957,5.72796536761311,6.39435058137444,7.17687071027492,7.00437699444221,7.38750522883099,7.82412298904469,9.67201642334028,7.62209639243361,7.40810150731287,7.90018746262249,5.313186149493,6.95174057453296,6.5469316961872,8.73283621771287,7.29868125055038,7.2799825103,7.75428848904055,7.4029014297017,8.20924684307621,6.93863229682128,7.95796001929577,9.28372868111427,6.20265919565455,7.29004742706584,7.54220990420216,6.82496414036769,5.34994277319232,8.27919591143206,7.38080016509441,8.62183203799525,10.2508601743739,7.97883099615072,8.1426789860208,8.43025593842559,8.0137584364963,10.536082218292,7.82271889788647,11.4987492800517,8.71111449588208,9.82832789548099,7.5916166699339,7.09228719024482,10.478267811923,4.72422166447869,9.81459003679357,13.4125394862218,10.0622209804652,9.70072528304637,10.5402323302833,8.18168644812813,7.87553445843581,6.87923072255166,7.34572662909525,12.0000733574015,7.56961369969567,8.41399480259716,8.2309794112222,8.84587248072706,9.12949700414782,9.93248336187988,8.21480661839087,5.51666126475025,8.49717120647945,8.76112843560969,8.35458535585201,11.1769747101207,5.79430404079628,9.35807825472478,8.93331126154184,8.54539433073183,7.3174857237792,10.9119733191878,9.89414594018159,8.75897430455124,10.1040713849022,5.48319039662595,7.44887277483323,8.26776060388291,8.05366109400888,8.45736508992651,10.0739095203636,8.38290323641333,7.87351577527607,8.4963451355676,10.3866520091606,10.9157655261428,10.5725514987447,10.1554555779323,7.400599740623,8.08410255224824,10.5619179039249,10.1605787344585,11.3457161867723,12.4556369483482,8.75867192985795,9.609181873402,9.98384706843465,11.7569354419345,10.3833384623655,8.31441799546896,8.58016172733377,8.66724093295652,8.16689180390159,8.75426698319604,8.19185920161324,6.44555574062481,7.40229634006557,8.75844220840048,7.84921711683011,7.27533975915648,9.77958584081131,8.55422518613951,8.49652904936142,8.34244628720298,9.4183235503371,8.74978090744351,8.99111944234604,10.3539949428256,8.78931951180192,6.73345748981717,10.4413165412285,9.30411017459679,8.33037139566957,6.09331311390652,12.1360891423425,10.1301657596038,8.96269706139028,9.81153087701259,7.838865531152,7.10919435051238,11.0336617705103,5.66451417718017,9.43605274420881
10.3047881750834,10.7777307306346,12.5309478587348,11.5676538775291,10.825127719475,13.8188960516055,6.98984119925269,10.9877991214838,7.70799108738274,9.43532893857845,5.47345704713095,12.0287792937357,5.27239340258706,9.97466891081303,10.7288926384581,6.2412441716978,7.22998344207996,5.04678053882059,11.7598433710489,8.81644424901023,1e+08,11.5519966609178,8.76033710005844,11.7296948282822,10.098820399997,5.52940339920649,8.29877799067538,11.592903242213,8.47764899663632,6.79382116996312,9.43732218566978,6.21880314664298,9.28502026171754,7.31246953675486,8.07850401818151,9.74196323086756,11.1329336917224,9.73672822217012,3.16691907461727,10.1488591390273,10.8387433427507,8.56061984296798,10.511234771466,5.02572795528279,7.11359580648916,9.3152439187836,9.13464833655433,3.35733453966776,9.77171658847258,8.06946429919888,9.20181288785658,8.18883100415603,9.93126965260601,9.9055440457564,8.34396282476411,10.5019941678151,5.45675365656883,10.8190719361975,9.57699375338532,8.76176090259942,11.4141180130028,11.277029820662,7.48649439617844,10.3440568549491,10.3426402174345,10.8529644760632,10.8000385220362,10.1353913746531,9.43269926320212,8.95111326286027,9.34532999817077,8.18999504201624,11.4018938559103,12.9307380962563,7.99614351078974,7.74540963318396,7.94054211926014,7.65513725946765,9.59243451115915,10.5224484875784,9.22140462125243,9.93051626057675,7.67663795531867,8.2823724880873,7.41677714884521,10.8283846882874,8.35029547947588,12.1006120411634,10.0149300469442,7.48213834240555,5.48293940833181,9.8190679451578,8.67666915836131,7.62916238437749,6.93426622238947,9.58191586491369,9.43326884070357,11.4258770049234,7.52867031504674,8.03137891286775,10.8298411687223,9.35001405043593,10.7311122091466,9.9539371961514,11.2841781680141,10.0310363754117,9.776442883298,8.88205687269932,10.6688155242174,13.0651148389478,9.39306647580166,4.59909057452729,8.064141130632,11.3267329354636,14.269820129259,11.3558503109944,9.27112081243012,7.73570745873751,5.68157967415104,6.90500912073847,10.4479011261693,10.4068467172857,8.31890023474605,10.2149895512152,8.40331527100223,5.82787273203125,11.2335657565617,8.52019697311795,9.66538168981584,9.60328035273981,9.47633522478679,9.49040604344158,13.2973727082134,10.0250614983987,4.56540672743334,11.7649162839404,8.188838904828,8.72668865003794,9.7005610952157,12.2958811389955,10.9338655099093,5.71692477873321,7.16090454519172,9.75984027363293,10.1548362728837,9.54816682808728,10.3367533468492,10.0148107612842,10.257400518524,6.4628930390603,11.7064136692631,10.086387881703,13.6080300030475,12.6699209309892,5.78131937010959,10.7477114462307,10.6875379029379,12.465016215256,4.78040755321436,13.7769927360649,8.79963542863694,9.66546887727247,9.12837361281945,11.0051493975906,14.0561653013658,12.4280899484198,9.53463387129345,8.08550461681505,11.9256515694052,10.1962292237738,12.0945908986584,10.3615757751782,9.30343026983424,11.948461008399,9.15307755398958,11.5138637748889,9.91760464619233,10.8995749391964,10.2960781519495,10.9470781395166,11.6642221320397,10.2761933486811,3.67691263494297,10.5477696240936,13.8588285071071,9.65187969836448,10.5895988475783,11.6585982421275,10.3401636378736,9.40838502573852,9.42666473336149,9.00060528718705,13.3014274644751,11.4460952762138,11.6812424757125,11.0989033683257,11.4532522240398,14.480005496565,7.73763059973944,11.4340308811073
4.81753377278949,5.62713337435584,7.66712893540282,4.72146397405206,5.99151973874809,7.62278703175749,8.18932714540212,4.49297574639232,12.628536495435,7.77350373199504,12.5581618670791,5.04606735528673,9.3210172328093,9.69292981125511,8.60352478908309,9.92341720912635,9.18109652862228,12.3607532036592,5.22989257294637,9.60147970848537,11.5519966609178,1e+08,7.68514807134536,4.84411097219307,4.70552266043569,11.5959052093133,8.97161537386638,6.64663463840274,7.50105104439426,11.9722699658686,6.68238238831608,12.6480666507146,9.1658124164062,8.21298971568998,9.56159387554971,8.48714816667382,5.68928241355954,6.35783435780015,11.840741741702,10.2696567816105,8.73838582648392,9.33715406075207,9.7383141553991,10.0792901212966,8.09547229298343,8.84350366859706,8.6036529188053,11.1825881478161,8.97528379498151,8.37185713207951,9.0982787396891,10.0823354957707,9.92100574100822,8.32674402990188,9.06836157695359,9.33757849536638,11.001834240275,8.3321569768684,4.99715240145458,9.17821837359961,5.58063114926838,2.65960537411273,9.20193859125061,9.02557581959045,8.74067420264751,8.54798264223805,7.51979685973192,8.74790293410281,9.11879646519049,8.93584451793225,8.31552737647064,9.42467522630469,9.46104247428107,5.6980234292292,9.46006355553866,8.04678893383273,8.31427157991256,8.97551351412602,8.41663559509989,8.34868659382057,5.41387439056727,9.66968142514983,8.67663226720562,9.901787696181,9.76749619358887,10.0719816667791,9.52907735269888,9.35821144130661,4.90168198761434,8.57595245520466,12.6105257428458,9.3331216946541,9.28970583483397,9.88295806054155,8.77667016249536,8.85282943834117,6.15946242836352,3.18639144820804,8.72411809160091,9.40214428450551,10.0595143944051,10.1790552609045,6.09223699320361,9.06599320513993,8.39166686572258,9.6164846653404,5.96641840973134,9.40516624148927,9.58262587419977,6.00971869688273,11.2406419315919,12.0550349411588,12.2241263743753,5.73901343236827,10.8241609322923,6.03165222500284,9.9582348165742,8.85709014029097,11.4437781608652,11.8596587115077,13.3364961561907,10.2346138696964,9.67694361454637,9.64672003099723,12.924068930741,12.5748358437357,5.05216465719843,8.35757611774415,11.5582592423734,9.4105017579311,9.09986259928269,10.1967852626565,6.15492027754519,10.9658930151617,11.6098809583242,5.70505877816421,9.62643115804759,8.82314703248664,13.0641494718292,5.75658449809651,9.41120818723914,9.76560187341341,10.6953930541525,9.53171597458789,9.93084092029578,9.65523511520676,10.2581978994894,5.69973813973905,9.38073844604233,13.5130398616181,9.46656099981939,13.9097027945314,4.73006394639732,6.16607713612607,12.7748851567135,9.19884940763201,9.46887555411594,5.83579473398877,11.4195371534262,6.75734626154841,13.4557439833915,10.2157556160443,11.0648956095171,8.26992756552382,8.21375842542084,6.53666006236417,10.2602838671942,9.37130600414525,10.5593450586167,9.62075832202565,9.76186245687132,9.98678344859142,9.69748940053425,9.90120324478643,9.20365751958667,8.19227530963518,9.48734113793041,6.07757984438009,9.88678186250532,9.68612500386974,9.36681200210042,6.59092131467804,11.7163394539025,9.76307968909913,7.50822578860971,7.11716838126973,8.37009660176346,5.63729707572322,8.16652389813793,9.53925249250471,9.51589883056263,13.7215948282918,6.45508567853081,10.5284398347674,3.87772109530353,9.84835945243954,10.0083083520974,7.5046879829905,11.8266907255448,6.94774679230876
6.55369597570457,6.13955410420341,9.25916079802245,7.70066887289889,4.85993550319638,11.0254228246222,5.0090806674188,7.15287234348051,10.2781799316601,8.11918705977339,8.79707888285294,8.23615202381945,6.20680296062129,7.6062403157521,9.04142370091876,7.41892040654777,7.33566395598082,8.63642090350718,8.17621365722338,7.84403477479499,8.76033710005844,7.68514807134536,1e+08,7.96068865095693,5.66411823481249,8.72180621751487,6.16889364430593,9.66726325119155,6.85715448386761,9.74699097259013,4.49157937097547,9.01053840682311,5.43724881768081,5.04689814763366,5.50028691185594,5.4033346501606,5.80102356658451,5.45796191341576,9.55831745566015,6.62298253137496,6.04235110246386,5.46895912052029,6.44312866855812,7.86976700677777,4.96472579755159,5.5465325740948,5.52428782426297,8.0582318687028,6.50093820827989,5.94514797328736,5.55193427456575,6.10454606606511,6.39176559767014,5.42312594195207,5.47624967588101,5.86262492033162,8.37489332894925,6.17493628239184,7.65894967950572,5.6500304217031,6.47619186352968,7.88700634272135,5.24252998469984,6.07923718744493,5.93926713495929,6.29385382358989,4.92837280605774,5.53409950879126,5.54043818163568,5.25512829453525,5.14007836677484,5.84369201142349,6.81032327927258,8.24955413373804,5.47387038289442,4.65322915825766,5.26154281037618,6.04761650256427,5.43095221056017,5.27163028928894,5.22667715460784,6.51178342867975,5.06997598435306,6.33394107729119,6.3306608338618,6.93214899495715,6.03270643307283,7.16251208017073,5.90561829469221,5.64468044697382,9.65440113131202,6.08599928657722,5.74758416475047,6.57398758210402,5.77345806824887,4.51392823319227,5.87816246476062,7.5715870805038,5.52987007362439,5.15570172878755,7.10772817677328,7.18196621695618,8.11803968908185,6.39014346992575,9.87234124430417,6.50382111416132,6.1204587211572,6.28645337558942,6.40147845599793,8.4443910152899,8.79218068469472,9.85470729353718,10.4894350833908,8.39785803552989,12.8290549553791,6.84993177592726,6.10544791681621,5.36993682834379,8.27054326803179,9.21378719247185,12.6599158119359,7.07941392886405,6.70373080381453,6.35622394956096,11.177777154265,10.2870724869046,6.44709149797391,6.12609648523714,8.18822473756997,5.87814406749372,5.91538193964907,7.07510771891289,9.17074238959398,8.89711417097679,8.98220664375675,6.56403709609712,6.4975731421311,5.77034794719131,11.8246166427643,7.45343045870194,6.76081817168424,7.789134365949,7.63980793554368,6.41381655743471,6.59322546644129,6.87302713950158,7.41449232436798,6.40451906462586,6.53427619025205,10.271985275827,6.94745464173102,11.9641983554361,8.54555370812654,8.13914743466563,10.7710447622614,6.27409417255547,6.45692459491244,9.11832718183269,8.95973996982687,9.47077094070779,12.2884608835952,6.66721208767721,7.22160786661988,7.66519313221974,11.9911070913323,9.33905745532442,6.69167870146364,6.48938919909938,7.90053250223566,6.59537069214577,7.48931504479682,7.00036455631751,6.81607013086747,7.32606332559997,5.51611537293227,6.70538945261471,6.37429745116919,6.16019198548484,6.8182644854477,6.59662129127081,6.76222421977253,4.91182362108852,8.8913696761304,6.93627043717075,10.5604859411561,4.9041618781864,5.15578854733844,8.00034014900228,5.71855055305917,6.27109712027766,7.0491132821458,12.2316952716812,9.33364346983555,7.74528439053815,7.48313226239543,7.09451861261839,7.15646279416437,10.8625976834389,8.63511221856322,6.48109205557439
3.76992443817246,3.82351021393912,4.55637914504639,2.57005828352044,5.52797547413907,5.1373391587109,7.55018612386028,2.77137899995691,13.4040076509737,5.564647077133,12.8369828954551,1.53218811616745,10.140692995385,9.83374732623764,5.8569013193229,10.517922797075,9.2169379796282,12.5465219027354,2.41135967947986,10.1292140308327,11.7296948282822,4.84411097219307,7.96068865095693,1e+08,3.53038658611307,11.3576679805893,8.92053057969293,3.66686726807088,6.71970827507089,13.1150978671032,7.18833148897176,13.3818999102139,9.33780309558496,8.60204076323696,10.0356286883317,8.58274056555639,5.14427900764434,5.72365878170731,12.005593298942,10.521789215982,8.97670894417888,9.79423095326291,9.6824217693603,11.106507701006,8.50538472927495,8.99592966181825,8.75711488065059,11.4336158000866,8.69386346141701,8.78324954156699,9.24814501030811,10.4525373736028,10.1414948696392,8.42712118441042,9.39851087021168,9.29325406938437,11.9674092434031,8.35088810804011,4.76704897598195,9.26298007887113,3.78275088901419,3.44945016375462,9.40742262411337,9.1855363377541,8.51720935148776,7.69569750859511,7.05127647478205,8.67296319718389,9.33260655247481,9.03432396507419,8.33887800236372,9.77225631446615,9.13898528094597,4.08690212886786,9.8453396792409,8.50114940226718,8.22808031235959,9.32914395402375,8.45634078616234,7.98159387830374,5.2261495220806,9.64451941487649,9.05914560598938,10.3577836166766,9.92352796205807,10.0221355032022,9.93191412395672,8.90864969832654,4.27185585757652,8.72966771236283,12.9479487705754,9.33058685180708,9.63854504107584,9.84281128170469,8.97354456801271,9.05730949030568,6.62559617131819,2.6110183954289,8.73203257855547,10.0495409540362,9.91869162459125,10.3683223266532,4.12498263957952,8.67626309740546,5.96022485897113,9.84368024048401,4.98128894932313,9.46933930384296,9.4653242584923,3.79051980372137,12.0255272257324,12.6106360665325,13.0126984134034,4.36327555393442,9.40413540575211,4.74292262273791,10.2051369619024,8.93785106110697,12.3069583242357,12.2738376926944,14.4350048834847,10.3010190348993,10.024194769035,9.7544615317648,13.1313522959439,13.3323428133769,3.63041676723094,8.17742706708658,11.8936810941189,9.69165234068438,9.16600141841845,10.663756736504,3.82954916488871,11.0848615533795,11.2971529050896,5.45869344596844,10.140471263941,8.98784530295608,14.338691597264,3.90754937981918,9.4158909716925,10.336120113459,11.428749299694,9.68092047939576,10.316148805236,9.80915183390005,10.6537585987563,5.05363132218676,9.19725094999173,13.4481777041078,9.21153530347228,13.9939820893906,5.29563064416074,3.603452647715,13.8750484043195,9.29557381546903,9.38219683018,3.54898294180375,12.3205032777023,4.22661239265888,13.8690124331115,10.7546203605008,11.6355342973912,6.01149515125855,5.74426325999575,4.20378952219812,10.755490295243,9.40754625886794,11.0151091414487,9.85285163967124,9.64411808952368,10.0948698467885,9.99986132584084,9.5374658267213,9.30287438476604,7.34555558924879,9.39178229133377,5.65636630983724,9.97501259264111,9.94680736596958,9.10157521759311,6.05063299099256,12.0405133786283,9.80768033594894,5.33438069203685,6.90494599491214,8.46137948520187,3.32265660862363,7.40191683532261,9.70377921988129,9.57528290141422,14.057188181433,4.40105592474444,10.8931361088137,4.24358787934163,9.59572687489561,9.98524029114536,5.20060165239546,12.4927139723557,6.59140488313309
3.58202796557713,3.30462777870198,6.33703096751702,3.13614211622472,3.84955257424895,7.48363932705474,5.56847065839046,2.96983179152985,11.8596180684365,5.5275569941244,10.9594243135842,3.867293189058,7.9961025563825,8.42695485949797,6.616639756659,8.59440290244445,8.15044099324387,10.7084151259394,4.25000194951365,8.4051496327875,10.098820399997,4.70552266043569,5.66411823481249,3.53038658611307,1e+08,9.61815684097496,7.26101248172987,5.29750559999726,6.17377141360674,11.346290938097,5.33927307394624,11.7249690704618,7.72597037190984,6.90890527944526,8.3502452566243,6.99432411262579,4.44080346258258,4.46452820098318,10.7977253399901,9.02897143357344,7.52814921599061,7.93206943201541,8.4972621553103,9.5861283102259,6.62687264367127,7.36066053074997,7.30559570735214,9.81471956318694,7.73738268807032,7.04224231505899,7.66514305049164,8.94992993279513,8.57348531510177,6.87393064261898,7.62817754864059,7.90628562926005,10.2154841225236,7.37947209098484,4.58428233152052,7.72149799089635,3.88722013139249,4.4203693860153,7.59307525462567,7.92312652662307,7.21576056152945,6.85075938676764,5.74100676114652,7.09881301438536,7.66195329534373,7.35776285980024,6.85222636075392,8.04682348725265,8.12815276534824,4.8018992440403,8.17043014701051,6.74442848443497,6.64006207757159,7.6834321465922,7.01984069620595,6.52511893262523,3.53136183571676,8.42124701285926,7.24556636837274,8.77410102156229,8.37240305728666,8.73354661836752,8.30819426673033,8.30402356003132,3.12296371611642,7.04292756496074,11.5338404316045,7.82843930628271,7.86807219030781,8.1989510181349,7.39585434918234,7.24903723139273,5.05029511101765,3.50045385119491,7.02332714581069,8.24863576820911,8.81332021738113,8.93789099928983,4.5506466849175,7.59606166539874,7.00154429884779,8.37020298066667,3.71006131795764,7.9786946246435,8.07722922145353,4.9331249853018,10.2738270142859,11.2239979198632,12.0571168044736,4.44075054140125,10.0119115198558,4.44366483944737,8.71036680401191,7.19498437484864,10.3079316592245,10.7236434850662,13.4505555548507,9.01745246654329,8.44054923544206,8.32757679098382,12.0888966952461,11.8797296556275,3.10789734245712,6.70517671596753,10.1142231590114,8.17222035286471,7.79481723194069,9.06890953489271,5.30367324824956,9.79306306227693,9.94412977834144,4.30708332446806,8.48214072280827,7.34861013570803,13.1224416934273,4.03595013258945,8.25462040202184,8.73231248836282,9.42655745620157,8.23266783642894,8.71780642767097,8.42416037502709,9.29924972600694,4.05130047281066,7.98167964757778,11.9290846236429,8.19549168756285,12.9544445948465,6.01088770565012,4.68806587754016,12.404431477154,7.78801513831854,8.193771667498,4.9390244067226,10.8531380560119,6.01567194403297,13.0094178364061,9.10257211308649,10.0962170796659,6.10336173021477,8.11990648082429,5.70313852004029,9.1055715016312,7.92220183879782,9.85382979809854,8.3871985152025,8.63369153384481,8.79363737707554,8.37888989774869,8.52477357480275,7.81254530710806,6.51614453504342,8.02599860361124,4.66091867220515,8.61805179377004,8.5768616170086,8.05795812916033,4.51338221810033,10.3688927416375,8.60668484119863,6.92099056697534,5.32793011562043,6.61409778365218,4.19385700899713,6.36669022385112,8.30218312501359,8.14200414982653,13.1972068838359,5.61393989277918,9.72832133896682,4.25361218221458,8.39472348391068,8.75998978936442,7.25587405260187,10.5917088401095,5.65059937719316
10.6434902384734,10.8520259564951,11.9222380183396,10.8304066286692,9.85754435134217,13.0968508981099,6.71723867970863,10.6874412175857,5.17796992235566,9.33953493911193,3.72966999617448,11.6963445191853,5.41012202657041,7.34803823909427,10.1724503588146,4.21093624154921,10.7291580611947,3.69187221838695,11.8404955468951,5.64363070996603,5.52940339920649,11.5959052093133,8.72180621751487,11.3576679805893,9.61815684097496,1e+08,6.96612355134397,11.0847396882191,10.836558904422,5.11966209369604,9.43297158093859,6.22565152243716,8.81421596409308,8.00684310903007,8.40374240631378,8.40917212749573,11.0066994825198,10.296459136303,6.79915630858172,9.01007112740501,8.93567796635199,7.97217444383947,9.79375272570013,8.26584944830334,7.63246790922242,8.67485927524639,8.32950152582331,5.20619740335353,9.30196063907061,8.9376800504492,8.68846181461135,8.21891842028453,8.91281909556551,8.44116954369746,7.98392723302768,9.69697033542519,5.10712443904253,9.82858797963005,10.4915553546998,8.68878181689087,10.9039224415777,11.6062367364884,7.52034630586973,9.67988001014297,9.16205043982752,9.91460668140132,10.0555961880525,8.43233331553673,8.62423932721129,8.52254780930223,8.57735923867119,8.07318451299479,10.287274490166,11.3064073887091,8.24338961130612,8.33933955431599,8.40194962130494,7.05464273491266,8.56645124235665,8.969842013952,9.35486827911731,9.41371776253368,8.14276190482329,8.31644269055847,7.65241295721451,9.66678943613854,7.89485678991319,10.6812535389899,10.2082776332065,7.16501226971417,5.67829510208949,9.00020938817698,7.96156942438015,6.14440579665099,8.03765706693843,8.90818981395193,9.40237397534786,11.4025861316666,8.19067371335908,8.26019986281678,9.95299378426336,8.51188170628164,10.9865360452564,9.34737469074147,11.3070133006172,9.43440859281668,10.1102345332567,8.37218785480415,9.00102566951131,12.2244204728478,6.57072376339523,7.73741969690532,11.7758079022161,10.6037429268344,11.8070830693918,11.2945682143683,9.08987811111682,8.1351736169354,5.45461998263547,6.58490240117609,10.0056530666914,9.35389940151014,8.58434035810486,9.53312976361997,8.01048393114786,7.58472512675983,11.049040726734,8.72435265819073,6.37359876707981,9.42882198625967,9.64562544978902,8.79247022114456,12.5824974951506,7.7099004703421,6.90373499312541,10.7956338976534,8.50462810032368,8.2030961655581,9.09028185241478,11.1481837414807,10.1644822401776,8.90355781818483,5.59473924116327,8.89967768927787,9.38932249237626,9.06256236491661,9.43796264336554,10.3501958190768,9.54701893478237,5.50115497635227,10.3194605744047,7.98551106386246,13.2923225909326,11.9999625331885,8.71326512793743,9.42346453084727,9.89606083174717,11.8013956201649,8.73985828667634,13.0293106118287,9.62614841998286,9.0389620718705,9.58943065852822,10.4275970649981,13.1517169904258,11.6236454829926,8.92465540569119,8.64641091478764,10.3725951461712,9.16802270712193,10.5848684075539,9.40056095064046,7.83624554453102,9.82785539838297,9.43393564486888,10.2772214290994,9.00715340319291,10.8929551257224,9.5520943849786,9.9817003087484,10.4762615908262,10.3629639555566,6.47073736699977,10.2176728399837,12.1782056234992,9.70790091021372,8.68444743134758,11.5777807148954,10.2622736286106,9.28083225895292,7.93763222465265,9.23389235122298,11.92487658783,10.3203817431671,11.3469621907394,9.48975222894969,9.46727507173106,13.1133072845227,5.33996413006918,10.4271010545198
8.04048472855477,7.45796909097054,10.1321110581912,8.7287677762016,6.10729813815617,11.1481677342463,5.38419693012185,8.17690536754974,7.31643829136548,8.47090524049365,7.42336530066384,9.36589135211396,5.52825787725975,3.34686550214166,9.13184350924539,5.12962153925548,9.48005310482153,6.94413854541724,9.34731615871425,5.16892049154317,8.29877799067538,8.97161537386638,6.16889364430593,8.92053057969293,7.26101248172987,6.96612355134397,1e+08,9.57968161217577,9.20760875028613,7.88554092108706,5.75900504311588,7.60756963714943,4.77802870525208,5.2665322421363,5.19227689123758,3.50830507124915,8.01830904840137,6.92183874635176,9.22104536888661,5.38553378304562,4.42882719865657,4.50493712739814,5.54354744277163,7.58245354404378,4.81406284483206,5.46636067641647,4.10679758988431,6.67746658928566,4.5113685857603,5.39856217447308,4.67385672674808,5.44796110623279,5.14244935965408,3.57392498061693,4.1444986646675,5.65478782917048,6.60106113133949,4.71833391100153,8.57157178284174,4.87040558047552,7.89255794777283,8.90870054492999,4.99880071008792,4.76901562741282,5.34751570543262,5.08219147136939,5.89583327691715,3.65096689998522,3.97526567635902,4.72031385813855,4.45246403431645,4.72655301355353,6.02742468407351,8.95690362808352,4.90342914215624,5.34489772307177,4.98339297827113,3.65207347278612,4.51908004342462,4.72849748149412,7.01165232497509,4.99729118240922,5.40561447832078,5.18171495073611,4.54188081491061,6.32083231589482,4.48610987869438,6.23079115706548,7.55501606590136,4.07125180982181,7.28397818677119,5.6402536144085,4.46141245559108,2.77428885505853,6.26716137878464,5.41165884160053,7.26952528913643,8.92470772266013,5.07319289432785,5.98718108435752,6.25787671241617,5.97359501913363,9.17629584441078,4.67578669887996,9.89455492664196,6.59203094816829,8.1082713299125,4.79179210504984,5.15459925901753,9.87069527395988,6.3260317427718,8.735504862255,11.9956330269561,9.73091412916238,10.786301774714,8.60507245167445,5.85074626586437,4.99574828453863,6.90193429264271,6.63447245744546,13.6885886286791,5.32635963629079,6.07744435407689,5.91920916406846,9.50418297309582,8.6272392172049,8.55765407180451,5.430054741449,6.11174366095589,6.08861715595083,5.99496022174592,6.5102164045889,10.5000747389063,6.03692737890132,7.73598493396543,7.83717125783558,6.30666042415459,4.58677509732088,12.7190406182882,8.87550372167481,6.56448408700102,8.09886419571137,5.19091163025674,5.07474364040691,6.3466413878474,5.70633102684061,6.57662675308139,8.26114118850245,5.68874499140507,7.62674683715017,6.62346370254072,12.2570124261101,10.0936338684172,9.64358862355867,9.98202139224724,5.33090379246411,5.66563660887783,9.98359841424318,8.53581414932776,10.6445468167782,13.4235839274955,6.93962228052802,7.77567952393812,7.93625442642639,11.5704772440413,9.71834968969628,6.34472722250841,5.9093826675347,7.34651576868887,6.17549534644003,6.98364797643177,5.9398233894763,4.34784246633501,6.01360346648105,6.17835934889691,5.66696955820183,4.49027806367935,7.79783533574,6.29702717784884,6.57553892624199,6.35220151185641,6.80737736592732,7.97044161542309,6.59838798416509,10.5963667934466,6.0045791885286,5.42853687288304,9.23325988519655,6.26231406085833,6.02606813360173,3.78870517160775,13.3176120572559,9.88540011639882,7.46990391132369,8.6241426400585,5.5223631761529,5.77471668226316,10.8501957841335,6.25603335070828,8.10745032241344
5.56642327335185,5.56701739155569,4.50623818640619,3.61910754156687,7.39943762677125,4.42628564353293,7.78760936594241,4.45392074669293,13.6155820155685,4.61461237055482,13.2055067042522,3.17582874123979,10.7008845047743,10.3533000759962,4.91984106339081,10.8430305469082,9.90464456387165,12.7963204735085,3.32801315635148,10.4829409654112,11.592903242213,6.64663463840274,9.66726325119155,3.66686726807088,5.29750559999726,11.0847396882191,9.57968161217577,1e+08,7.89868115768725,13.4880774895213,8.43263504601476,13.7406291548112,10.2625003985055,9.42441334066255,11.0539450945241,9.59685200984905,7.13987933990399,7.12124988731047,11.9143567217907,11.445115537673,10.1392557165107,10.6574750937888,10.7257551599285,11.5748753082892,9.23984513209927,10.0884197403795,9.76201037929338,11.5837034098507,9.5781406162682,9.94667537597816,10.1431768073581,11.2840425845069,11.0949262813051,9.44147087005114,10.2419497224254,10.6399536062594,12.2952761319652,9.43326692525661,5.59965205181043,10.0989785721813,5.60434324084964,5.20683061813875,10.0919495432193,10.2462533627576,9.90732738473158,9.00056721256505,8.6001144100033,9.69527265908113,10.2483926023912,9.88336316817058,9.38674459125522,10.5759211684104,10.4382043015349,5.4492378846296,10.818111918864,9.48546550868312,9.09519624266745,10.1088896396647,9.50036161093487,9.3357280103657,6.35375813674689,10.4979540832029,9.92201433670752,11.1601625794044,10.4145062017432,11.1488150847631,10.6767973226107,10.2713386237237,5.86872677274806,9.39301352645416,13.0044812452549,10.3874400199037,10.4326705391864,10.4411285306194,9.6219431394069,10.1658720028817,7.80985860299848,5.02845159388079,9.37008721516875,11.1054218260928,11.0513351941063,11.2739354531061,4.17104116485853,9.94779277508724,5.03100023658871,11.014868996233,5.98398089386963,10.6405049352656,10.5614008285928,4.93109165174794,12.6936370707045,12.4924462119909,13.6385466272747,4.40958612441194,8.07389875575661,5.95986351498425,11.3827727422809,9.95601115143017,12.7739661377097,12.3985385940987,14.1317456484689,11.404690505948,10.9548143524293,10.9712800076106,12.9095869247813,13.3277095240843,5.14855160376624,9.02638916429701,12.6350426521912,10.9778521680972,10.3740768049348,11.7009062168593,4.65559151673194,11.8339748784633,11.2129083265461,6.72593042906632,11.1746921067677,10.0884425575551,14.0213668822354,5.06739512343165,10.6468441778862,10.7264550551947,12.1329812076131,10.8434321098109,11.4850841922952,10.860962465448,11.7290275483904,6.09691512039679,10.4056839440343,13.3386132831094,10.4565560158685,13.2754335733898,7.06712580902832,4.57532750334988,13.6920922488118,10.4449076900615,10.5765451418183,3.89147244060757,12.6675097666567,4.88625847010936,13.1999018210162,11.9506645054428,12.7174333843305,6.39683602848641,4.51110570853488,4.01188582219954,11.8787256874746,10.2449718250066,12.2715194832014,11.0268159286877,10.8775365654469,11.1889577479528,11.0375114146467,10.6423600974456,10.5423029734564,8.40932455399151,10.5200972441568,6.96197559471056,11.0823979903013,11.2882824816111,10.3341062521048,7.59573462627671,12.0707838612099,10.9556008122356,4.81379389295138,8.39954962344921,9.66106809774851,4.01553005893336,8.70189014422386,10.8508342963909,10.784555003094,13.3902394478509,4.7065321260071,12.1293867166257,5.69579875682775,10.7189196690898,11.1199859460338,5.08799654123539,13.0412978999042,7.78001131208919
5.35525815707156,5.66007417315125,8.45107990645417,7.43735193465863,7.35847271438308,9.82983703603545,7.26042798604306,6.49793800463197,12.9660686826889,7.21198442594018,11.293480660227,6.84901990257438,8.19041783515348,11.1845695612488,8.0414745206639,9.97979545750681,3.5847612175003,10.9597204284278,6.47705887037053,11.3944474384211,8.47764899663632,7.50105104439426,6.85715448386761,6.71970827507089,6.17377141360674,10.836558904422,9.20760875028613,7.89868115768725,1e+08,11.940740730094,6.71708094677598,11.3884691474506,8.67856984951556,6.92041983431096,8.02453008005486,9.43780666589353,6.09060027724823,5.11178953762095,8.14823170869376,10.2080851673666,10.4395851807744,8.95278812551962,9.54643369438749,7.63108187412238,7.06472218329059,8.30838288405439,8.54326760713987,8.67650676998682,8.61737498363832,7.19660835555292,8.5081190834445,8.88901558374498,9.86792160467518,9.47592722273348,8.38931866291694,9.33828137796446,10.4063265632807,9.40751885138893,4.90704750459835,8.12554720875166,6.67784642451556,6.39629476744502,7.83391522593311,9.26834017586567,9.10305172913809,8.92743247448292,7.71089272833106,9.92690623176241,9.24454779695312,8.2302636097435,8.19897864000313,8.35584558897437,9.90697278258332,9.13880674994121,7.97027194845462,6.86353569922545,6.68490842809142,8.63401433905736,8.55374001981426,9.4160467137575,5.0909969975405,9.28291380614536,7.34008359216611,8.82262406239863,8.52134824880035,9.9871062135315,9.01727040778953,10.3036811517386,5.05419957211505,8.10254226489962,11.1257419158873,9.02832684958121,8.9528800511355,9.46764004327923,6.58527164379179,8.59664089358363,6.13842391064158,6.46959113562613,6.88091236291937,7.88079734846076,9.92656857650407,9.66172951609872,6.57247038798833,8.68362989385496,7.98902296267178,9.24839263298381,5.40113335504332,8.79948933855705,10.1718628647531,8.54868492881718,12.2295685794856,9.33850110165175,8.05907567991683,7.83029543297299,13.7049822080595,6.2033735428479,8.88339788451739,7.29527062536433,10.1854980560177,11.0816162474157,13.425929051593,10.3095456860863,8.34468078702107,9.32053285586505,12.1813374596955,10.8380443614999,6.21337688271203,7.31087512528012,12.4565010865059,8.58042967501581,8.05829593930007,9.87657383016048,8.56601050663203,11.6648977762796,8.48968357985378,8.15972167114159,8.19229320460287,8.43732628302007,13.2653045538342,8.01878828333401,9.44951219396763,6.17473836839563,10.4967759663494,9.4722128028045,9.96942580714699,9.20338253135233,10.3075939709481,5.46004919295416,9.18482191232278,11.9611526943347,10.0837639140729,13.6845969036801,8.7244834462922,8.1018574500441,10.6167475452373,10.0340185705088,9.49980249892411,8.28563694825893,8.29070161463867,8.95994400871453,11.9444321761523,9.75994314095261,9.48639531295706,7.84497432131562,10.4009135781521,8.63718441566018,9.78147503708547,7.66426011154044,11.4110125247747,9.72462930544267,10.679036574062,9.94782366486331,10.0764969891443,11.1270432518195,7.76554661718534,9.31511635051539,9.46759353866833,6.42957812698538,9.54388876474098,9.84037164488216,9.99517948388388,6.3500946852374,8.78604919035823,9.40227422298562,10.7008350892018,6.63927039180809,9.61045792775229,6.88876286920273,7.11066858939056,8.58397357850662,9.85305927283807,12.439802827984,9.59006572946489,10.8554159080659,7.42783460016137,10.4156444853496,11.0716208942411,10.6569248378067,11.7367625424499,7.85674384919253
12.1550653196785,12.5029076013431,14.3115123072052,12.6491449799059,11.2882408227452,15.0410480384573,9.44007549960333,12.4833953037979,3.36594052387738,12.0075456070374,3.67545268916125,13.4922302403548,5.84857070537348,7.84400094933655,12.8970579319342,4.48649401073996,11.5638696238736,4.08246400498259,13.5879045167946,6.20517483905297,6.79382116996312,11.9722699658686,9.74699097259013,13.1150978671032,11.346290938097,5.11966209369604,7.88554092108706,13.4880774895213,11.940740730094,1e+08,10.3889368695991,5.62244423658958,9.49410383299185,8.72664473531039,8.65932026966012,9.28405320608175,12.002481933574,11.6108908411855,7.32021351422645,9.22622187879733,9.56337389475618,8.44722346038026,10.1485483069256,8.10802878342055,8.78962207575641,9.54487235809863,9.03209037359763,5.51869163019633,10.0380569995598,9.68701081603255,9.48539571624563,8.584663592759,9.17370976358223,9.31395665018461,8.68422233769119,10.1805036332713,4.24879637942472,10.4186389598409,11.7425274820409,9.43068894048537,12.3881672443958,12.546619029287,8.65339576594799,10.0829020614266,10.1242852207866,11.075515477762,11.3352998460838,9.45467470312575,9.27440791236012,9.53798312614774,9.57798397077849,8.6585952332367,10.83048611017,12.8961365345673,8.59794736186218,9.26618482749371,9.47002546307884,7.25960841487207,9.49355490384352,10.1829156910245,10.8120857652854,9.86889425625061,8.83190441225612,8.76161971050735,8.64018231981173,10.1464495213451,8.56952393932052,11.2603344442751,11.6056914073489,8.23816868794988,4.98880191085399,9.71287600173812,8.51724123671519,6.57465919147189,8.96557215547186,9.84549655216887,10.2562627789653,12.6540427154955,9.31569016372081,8.57637852259397,10.5175767393146,8.9513673712028,13.1996213946956,10.076303345943,13.7276255064809,10.0214923748408,11.9723449027544,8.93236738826061,9.85255296351435,14.0721915797545,5.5855783778469,7.87720067923404,11.2346781234183,12.7168570939925,13.7851077377776,12.9710445175003,9.33776430845806,9.03343982007388,4.46101618073611,6.9475149754774,9.7750712658505,9.710747752736,8.92700376314198,10.1095874148951,8.24310531847458,7.06903623177823,12.8727137189799,10.0096395304622,6.48646748635435,9.81193156506685,10.3519105012017,9.02794945396381,14.4928743669914,7.61416955900117,8.36884737813826,12.1965970955593,8.59861345036352,8.98279852056377,8.76800499605058,13.1055075731623,10.7863133896934,9.4627076328795,4.91518481493168,9.43535862326986,9.91887361633112,9.54251113236844,9.64242739626434,12.0303732287878,10.3760185065434,6.20649688974845,11.1240947092659,9.20581085445028,14.0437301483723,14.0729373226965,8.04262325560508,10.2859462336894,10.5681433163696,13.8402059594194,8.37557629515642,14.8963230601573,10.4161484748625,9.25704851747749,9.43466628851471,12.6708659743138,15.1216382129248,13.7752219531987,9.10714297450472,9.47186611885136,10.2647679108706,9.73300709071817,11.2494630424772,9.86843136289051,8.15252812302939,10.6631383093992,10.1080759275312,11.7361039235519,9.69940979467995,12.3535175840689,10.0783126789883,10.2821124317771,11.3590370334386,12.0088740345105,6.99985584695808,10.8590297486574,14.2661484234483,11.1140885972612,9.97348462936711,13.5742687249678,11.5983380471915,9.70336419967282,8.13772246466065,10.211924707422,13.9112512133711,10.336806816271,12.5439002515722,10.3211107549288,10.0341342874384,14.9333264672392,4.40316224122563,11.7108647166312
6.1924345490883,5.35099456531999,9.33636068458648,7.09455636494701,3.61731671317898,9.81886027623866,5.33754705874456,6.12610749157842,10.6739816654433,8.25240514238472,10.1993697741925,7.50221845733899,6.61734698542594,7.0017586549267,9.07251708624797,7.57950968500468,7.36439761982227,10.0791208438689,7.37173171594143,7.84995069061714,9.43732218566978,6.68238238831608,4.49157937097547,7.18833148897176,5.33927307394624,9.43297158093859,5.75900504311588,8.43263504601476,6.71708094677598,10.3889368695991,1e+08,10.3589551136237,4.13525975624556,4.2038091062019,4.84086411790213,4.65722419742314,4.54676211980187,3.24007718175362,10.1435077596669,6.0150326687877,5.59792924329057,4.72661490428512,5.49132063192891,8.28568571562006,4.119110932931,4.23707438170585,4.50683906921024,8.56419456193251,5.1793142079263,4.9143297697948,4.08558363329641,5.6881666974521,5.68212716798591,4.64292394191314,4.38267152805272,5.40708699492509,9.49886132410709,4.82373053099541,6.70725529446875,4.26921524975572,5.42150940706731,6.69233018654036,4.69310401193231,4.57096603542058,5.3957198775685,5.31307028135217,3.19454272951154,5.21639145477232,4.52040366134587,3.80671137617534,3.77351706964616,4.83980519609845,5.8303168092942,7.68020473504241,4.78821554520533,3.74392213831091,3.36649632238051,5.82547426090835,4.1627386665553,4.91579559072468,4.06097252382424,5.3209152506451,4.07038374671245,5.2064746429333,5.36107385744245,6.13944431282629,4.8844594896233,6.24041934725481,4.67273557255114,5.39653562603777,10.525844424363,5.10423683725334,4.80180802898715,6.67927518926807,4.93296641905921,3.62763252275711,3.47011179637397,6.91658031451755,3.80575109169095,4.65319782696356,6.36919324231672,6.52736823035687,7.63256987425727,5.49760664325177,9.44009502313338,6.06730375167948,5.60666516399713,5.82429819284253,5.8187448170437,8.03359430678646,8.93235186182338,10.2655366474053,10.6689242292316,8.03814175742228,11.7405043685746,5.40313627102957,5.85056520058775,4.74852957478136,8.72083550003263,9.84903901958527,13.7020362049871,6.52306274073002,5.94606854321649,5.70289037389067,11.7766894016327,10.9065143452901,5.55168310757355,4.62069780473434,9.306377788259,5.4124902107373,5.04119720038091,6.81842684285951,8.52718584771795,8.68337985204627,9.42632291673743,5.17620361411966,6.05355782851145,5.00086812429992,12.986038108592,6.70131739048065,5.97890126819703,6.88670486238769,7.82649171539079,5.97427393831601,6.1620808702804,5.96970666585671,6.84070867255579,5.63900393732938,5.79438227071122,11.0861668652985,6.16978337925025,13.1420160061076,7.85986744888348,7.8127020734504,11.1510586071333,5.48350232209622,5.60022864896782,8.32483133687375,9.36006437275443,8.83336264287397,13.2348739851194,6.783555145505,7.47813573438438,7.74672939466036,10.5276026428393,8.41631369528949,6.49452705455553,5.50852384552858,7.69980124528003,6.11255172886978,6.77713170856622,6.30658710683357,6.52657960386587,6.84658297964918,4.9878416306354,5.27442768862567,5.6878664807168,3.98956011407652,6.04002658266863,6.13815543220193,5.88043745226794,3.92725756748022,9.38006078539766,6.06062241121086,9.71441027316805,3.74048004256865,4.89540309680087,7.19250960047414,4.24281012990936,5.48703452509729,6.54646878782018,13.4176038743091,8.60158842432558,7.50074578749611,6.68508485566721,6.31851482754129,6.77145471873731,9.93930742132757,9.15816784481623,5.27962770369206
12.2932839174863,12.3093709767375,13.8279386804117,13.1053756210158,11.1249564128321,15.1607235117732,8.77027657880591,12.752417148124,5.48593515459899,11.7816202880295,5.19699441815225,13.7103770273707,6.18254394701108,8.32943599206997,12.5779185102555,6.4733554733387,10.4382181240564,4.68452615892697,13.6611226717429,7.83637519063616,6.21880314664298,12.6480666507146,9.01053840682311,13.3818999102139,11.7249690704618,6.22565152243716,7.60756963714943,13.7406291548112,11.3884691474506,5.62244423658958,10.3589551136237,1e+08,8.64560479412094,8.06727499786922,7.47723600739157,9.02478216781413,12.0957818293173,11.4120411983512,6.50282351590449,8.24775040691791,9.2850977906645,7.70287945516931,9.13984998043999,6.26736866855192,8.34113824697626,8.48578605012555,8.51839154260516,5.5321564532515,9.34344461528328,8.39529701712146,8.49756556165422,7.26199398043463,8.27327206672682,9.0206288034966,7.72323646464361,8.72217491326292,3.13700818150298,9.86440365040458,12.1824339409073,8.50478585529843,12.6255453999536,12.7722918521512,7.87199111449737,9.35613857515256,9.56692643597349,10.2137273609199,10.5993438765066,9.07765491813729,8.51093124499776,8.56083545652295,9.02796595404452,7.69103484630398,9.9010485991394,13.3260040018778,7.40831405204034,8.58852228629615,9.09744895418772,7.30263730108778,9.05760049536253,9.604845457586,11.1664621099544,9.05267478283339,8.20729475005221,7.55560307524915,7.45765431529439,9.05346349700024,7.39268844049804,10.5122219805137,12.0301102904626,7.84885327811075,3.88820822413462,8.84003758527654,7.75410674121362,6.7650647885531,8.59956004460561,8.82799494483551,10.9173656691196,12.9911128880885,8.57263050083593,7.3885839275872,9.76284647921015,8.61825500292297,13.1739057524936,9.44541149030742,13.2202657229679,9.28611842017114,12.0978336141601,8.43510015694944,9.45534459545454,14.2705730250741,7.46869535372358,6.3472618573882,9.9937333479961,13.418612054162,14.5899033855427,12.9877964777841,8.52395843454795,8.49291709186559,5.70281251009824,5.16166320337024,10.7734220490018,8.9590384777124,8.48598634146003,9.30476623867547,7.45911717312291,5.21293782709258,12.9632294478629,9.55833160189996,7.19959220457216,9.03763633552939,9.46329905105234,8.4965689140193,14.6767685046434,8.61992009222021,7.18161320373205,12.6789836906537,8.21275620755296,8.59843526707505,9.83811808945226,13.4247447328028,10.0419085594302,8.89039021619641,6.22517401074415,8.9185044417426,9.07248263675155,9.07224606741019,9.06123326484684,12.1719278862324,9.54128535326893,5.30028889728109,10.5534970111363,10.4364807941222,13.9478168944303,14.0497053572391,6.60330006667248,9.66437727170069,9.80014907813528,14.1725780909708,6.32928222527821,14.9041818973391,10.8939931065992,8.46145224594983,8.18186131114299,11.983735233434,15.5363680336974,13.9898831416472,8.3331218847517,8.9178895604944,9.66521477227262,9.25018981609056,10.6859859550858,9.20782315332004,8.06493621311233,10.3157381098087,9.20230351426152,11.2306750844686,9.0283143691792,12.2168018535022,9.4234375756793,9.64570750938061,10.6206717576684,11.3224700225005,6.39540555730191,9.85568140497284,14.7976350315505,10.2992759674246,9.64613482760842,13.6512863113774,10.7745399959574,9.07569405599533,8.31159064137899,10.6199184933609,14.3268523085374,9.67732958418185,12.6973461079538,9.71770516972882,9.61284417418163,15.2060213325397,5.83985272515164,12.0877783583189
8.80999290291724,7.67752090075002,10.6560892979144,9.37863177684474,5.6675997208219,11.3054495869965,6.28987284424738,8.49594185736762,9.27906647195074,9.95649570473287,9.01307264856169,9.66446376554653,6.60747945965697,5.72562182222665,9.88076902573298,6.9018627704755,8.83713048421577,8.81187215873069,9.72310040899358,7.17616967794448,9.28502026171754,9.1658124164062,5.43724881768081,9.33780309558496,7.72597037190984,8.81421596409308,4.77802870525208,10.2625003985055,8.67856984951556,9.49410383299185,4.13525975624556,8.64560479412094,1e+08,3.75602132281872,2.88541252329632,3.39093495678458,6.892622527599,6.19574626997396,10.087784318717,2.4957257083244,4.18443839901646,1.7207404558346,2.39435967082835,8.13568706663452,4.16595014522491,2.61437417528536,2.58559143157911,7.83831801437598,3.17753162371266,4.72523803511974,1.22638901093486,3.19406590259421,2.26075968076745,3.36587593004511,2.09399024836363,3.53976462026979,8.34098377239983,3.31216242981851,8.92046447815342,1.1878369671239,7.63651818205906,9.20407707590818,3.07619245230072,2.0962609281593,3.66694278322974,4.07929434581367,4.06928758221617,3.89186463533698,1.84865826704198,1.28558550095461,2.40183278800435,2.34797047597169,3.81968421171277,9.39757623991188,2.74135548680915,3.70275078212395,3.5014104063701,4.49410413827321,2.61783898613047,4.03870582597757,7.10713392753768,1.87803449864139,3.19168615106782,2.81768295256625,3.05452076539003,3.34326186531945,2.45775167240225,4.69455275425646,7.43291120773955,4.2133238602195,8.91639803806394,2.22552854368094,1.81488941315969,5.11054886061089,4.7572377665052,2.97106236604754,5.99516700525424,9.34933829767412,3.24914103282963,3.47890487443052,4.44245080316557,4.78794840624821,9.94753108297821,3.98047605920621,10.595031891105,4.96361764393143,7.886388791275,4.3823240431674,3.83299342492622,10.1964540614276,7.50011175503816,9.724884377468,11.1218762041418,10.3033329397645,12.1132794685364,7.66085372330006,3.76695785494027,4.22518855779899,7.96129367187344,8.44943881618179,13.4785499782826,4.19388083851718,5.07488186380131,4.24656781074025,10.7832912350128,9.96733555632524,8.33194620315075,4.79541856777108,7.54793377267983,4.01461018327816,4.1777370449612,5.46692481194644,10.7793363971315,7.06637944157312,9.10445083100793,7.67325491725059,4.91481740434267,3.99705634662649,12.5945776095323,8.84375868969427,4.55575359925081,7.90187456837194,6.79610025063974,4.09850318333204,5.23729531715629,4.65483753092311,5.24265311792096,7.84147340337982,4.19153919377936,9.48409029568801,4.79771667890688,12.4901855355623,9.94354072891043,9.92494899749301,10.7436012842757,4.45242161656904,4.01407086314484,10.6931345287534,9.07505106178302,10.8159123726879,13.384957386691,5.35303670096243,6.01825129384361,8.31856763245405,12.1581380551776,10.5053679968266,4.8467160765359,4.96467531151363,5.81943678024836,4.57532842459556,5.46068829582489,4.61420844766115,4.7871950950541,4.897370538725,4.00833502058536,5.50501890432819,3.91091478693448,6.81598437150803,4.52396068421965,4.59984759996451,4.55267324615471,6.1139591636198,9.07949714647262,5.13668214582755,11.2874011801739,5.31071296181618,4.99948787283447,9.63786610631087,4.38994994808146,4.19808214435856,5.17394991912936,13.3210026295302,10.5490970142761,5.779947204071,8.88172693879905,4.52440506069038,4.52960490564866,11.4010689426264,7.73556001461293,6.6735380353426
7.84710276083829,7.38794187507817,10.4554664779733,8.65158304237512,6.28180041992784,11.1050227789339,4.86295907451874,8.01675831560057,8.85291984055498,8.88147482017409,8.28254079695076,8.89818421711446,4.86809388788437,6.77694369561966,9.4611644829363,5.86972855050728,7.13967233629822,7.93397213851715,8.82205928230335,7.2427886020129,7.31246953675486,8.21298971568998,5.04689814763366,8.60204076323696,6.90890527944526,8.00684310903007,5.2665322421363,9.42441334066255,6.92041983431096,8.72664473531039,4.2038091062019,8.06727499786922,3.75602132281872,1e+08,3.04498998444444,4.59757248194352,6.9866294479072,5.90091662183201,8.01945820776486,5.22645967610307,6.05057228178042,3.65434184954022,4.96240302208103,6.14005568915221,2.21942580551695,4.50794363173354,3.30498139415551,6.05413097744263,4.09744294957322,4.0968379030521,3.65009329199112,3.09786125339466,4.85850923053225,4.79017377640273,3.28635935786808,5.63990093165056,7.15943119443672,5.18958500585582,7.55385359515349,3.34576062490527,7.45423232929071,8.22832764973385,2.54614164328474,4.81737890355125,5.13631400545971,5.43051969542484,5.5088038930423,5.19629435043808,4.20394167808394,3.29556696993005,3.3398080529871,3.17244705132808,6.20771442735849,9.57255431431636,3.05662446890492,1.82742005087719,2.45084809611858,3.37878615751335,3.7680806408779,5.38942834612235,6.04810591411872,4.44015327548434,1.29029540078297,3.38387061990002,3.3587459959336,6.0468944850892,3.53184095207954,6.86201864955003,6.70233534937831,2.75954023585609,7.94950252038484,4.73888686616269,4.0973322821428,5.070639844232,2.05380480109791,4.98345091820085,5.27113984084273,8.49674087751003,2.51487689198118,3.75781814225885,5.70002110269295,5.12337557729232,8.97638628166581,4.51019494651589,10.0567912285603,5.49552609973583,7.00698694587915,4.28820986451266,5.368612075079,10.0337413678084,7.7997416359745,7.96479021553353,9.48402642224514,9.32120417248101,12.5544157543782,7.36977292161833,4.09699236813221,2.93129890557265,6.65734691659674,7.82762488715689,12.0889207127503,5.48342962160027,4.38739717911637,5.29273075343223,9.99739453176227,8.59868840531967,7.66168433695479,3.87134423369015,8.16858338015357,4.43549269549563,4.23975182244646,5.81694793718595,10.5646618110225,7.68917463927052,7.49514331083156,7.75837167926518,4.14355462628332,3.61709292320758,11.2232974530182,8.74353536972606,5.72801585326358,5.55327453869919,6.14789964207257,4.89913420756951,6.01338880730673,5.08931699781625,6.07000486108821,6.87604553392124,5.11342691748749,8.8481429361803,6.44661429480992,11.6810915836001,9.84870212400197,9.69218927623812,9.19393656589297,5.69203900728516,5.39295876315037,10.1227759462986,7.21903778036965,10.746358996203,11.710658814848,5.7847095293242,5.93046164569845,8.36386688019362,11.8057593447942,10.041245232931,5.4301636213236,4.02319766242193,7.44192217143734,5.46368070525692,7.22498940598969,5.65501238393613,5.22962396484088,6.75599904459636,3.92237314339403,6.64774206878601,4.81685621818919,6.37518290325844,5.52563570261673,5.89330348766654,6.30636422727265,6.05650122466034,7.28264507954047,5.96023593602842,11.2170688558284,5.06314404602076,5.71120886484891,8.94007399276052,4.85356363203141,4.33532767823819,5.71670863593833,11.7581815732855,10.4605339429432,7.1153476051241,8.27168412918228,6.08307742771783,6.27613587553959,11.5533268548351,7.33126287031175,6.66578731565272
9.10446319807372,8.46960475826598,11.5069360900973,10.0700433009486,6.68879002028641,12.4444655351507,6.341736664823,9.24661901500942,8.81695041448979,10.4824699775223,8.0869133925018,10.3699579857426,5.46615527935023,6.5935358769469,10.5821396687113,6.59097040189562,7.92841611626201,7.8794820617295,10.3412326552321,7.81498061464271,8.07850401818151,9.56159387554971,5.50028691185594,10.0356286883317,8.3502452566243,8.40374240631378,5.19227689123758,11.0539450945241,8.02453008005486,8.65932026966012,4.84086411790213,7.47723600739157,2.88541252329632,3.04498998444444,1e+08,4.55182929578092,7.49360696569797,6.69275502868585,8.51429141118247,3.66286254254856,5.48157650545854,2.45519921533035,4.10869691361616,6.6525051844502,3.61343327493326,3.28497240760825,2.78942588314755,6.74626976157449,3.85775079466533,4.00557387162579,2.47735142570937,2.18749628827528,3.50069052942363,4.6780619773781,1.88220182605104,4.64313151160381,7.19057025296321,5.1214223602607,8.9602883265284,2.46958478881059,8.50443053413575,9.58271003277851,2.70638492292867,4.03075698705747,4.7092336423724,5.59105292179361,5.44056375903893,5.15781286938713,3.49376848409541,2.65173492434555,3.15967065364892,1.54700411011096,5.49154033170843,10.3723910202065,0.503423100288794,3.2998157207061,3.15176668729983,4.08250974309645,3.37562169614212,5.5150427750319,7.15920672431938,3.66806169971762,2.65129130978231,1.6618060303113,2.85435137172973,4.67129925061631,2.22706177715721,6.24799562114347,7.9203211897028,3.70960154013158,8.14445591943132,3.86476468691018,2.73727661356355,5.09630930371119,3.83204322206581,4.25725293268898,6.13222851193493,9.83010291484649,2.96892809902396,1.9391022041601,5.09991841172809,4.50019250313417,10.520970875284,4.39238083396907,11.2614927525466,4.84999720031441,8.30651513779761,3.95993236581586,4.84165733096192,11.2598305333929,7.49126044493057,8.51854537502066,9.52633771324665,10.8853761953902,13.5267453607434,8.33426414825805,3.29950255945932,3.42371363627831,6.68974067678575,7.91754343071145,12.7054856743223,4.6535419870395,4.14794579857309,4.58254867712583,10.4767747862671,8.86101423984321,8.98917344490337,4.58428651341948,7.7196140394476,3.76594280307149,3.99006066485067,5.07331939850052,11.7631744239156,7.42268620098335,8.10381823573244,8.6593605823338,3.7472967962766,3.63586701506513,11.8503907902913,9.77688385759408,5.13626178914151,6.43614253168041,6.04751859450536,4.34179620147054,5.27189338798812,4.61436812041183,5.21085949489823,8.15171820721158,4.62161039892036,8.72313468753406,5.8700881617447,12.1593542129829,10.8304088934565,10.965290179611,9.60727423218618,5.31661393021553,4.84930696357671,11.5161408227632,7.63835182748919,11.9057028559241,12.5390884555247,4.83238845238123,5.06489141927217,9.22163216655438,13.1279690223828,11.3782924238818,4.39585599524474,4.22345392829581,6.28808379206478,4.76334697174514,6.47236304269791,4.81901132524648,4.71982542290769,6.29502924540319,3.67833566453753,6.87383827673421,4.37416103289202,7.27155046176289,4.74973010625232,5.01871242252981,5.83805906274781,6.65892446070849,7.91813657296025,5.42372145888004,12.4638530397757,5.45886431293007,5.67283981657476,10.4374888883849,4.96346462333736,4.03432843011288,5.31204561048847,12.5332205832363,11.6478646312765,6.10606671234157,9.51641238302452,5.32486550989235,5.63665119757635,12.6718842410126,6.98864302038946,7.25047969698554
