1e+08,34.755231128,45.6040139298874,30.6591267177083,36.5200025017707,29.6568867187916,55.2653372485417,26.3005910603833,84.0986077933333,62.7433398456456,39.6930060918339,20.6190179649374,33.1293318284501,67.4159480183333,75.9017761927584,46.4907122753332,74.6380445710416,45.7191332748974,28.5083935003333,59.6282516998237,37.7071975222999,44.6320918448958,62.0365419042498,18.5845155496354,32.1812756036583,72.8864150923558,56.6056900144582,38.34688893125,33.53640245275,47.9820438177082,15.4187264535666,65.0469184159791,53.47569131075,16.4935442797857,36.989739189,52.0324435807427,45.2531622831666,34.3724260512365,65.5471151707706,63.2649409137001,78.1520874592749,39.677338010552,61.3079009653199,28.5881806309999,18.0334316172083,25.1708917633333,34.3091699789999,36.7784010618437,47.44806319545,25.1393806010541,33.0620413064999,29.7355212057999,42.5126736047192,52.900258940605,29.4492593208799,53.7855622845749,40.4047206332499,57.1812784086248,29.1402845021145,31.423915765115,39.6688738231249,33.8334140819583,17.6356901835625,47.1237842514999,48.5346711999999,57.0441612710892,44.7078554182713,50.8436865982666,56.7993923891249,28.226006439125,45.1329078265001,26.5065081239199,63.9736705224001,56.95052806725,31.977271206,20.7471342153974,11.8264755216667,45.2494980155834,48.1381151714643,61.8152226042624,17.8587309545832,51.3948808608551,25.7069955738333,36.0941265168625,21.0182513507917,72.3568391905643,36.3877574144584,61.9080682744998,21.0095572880208,35.2781039022917,52.0603133272791,66.0674625566499,43.0843970552708,49.5265948755476,20.9225339200251,34.9284879338416,41.4142308597,20.9510767435833,20.9682260461333,59.4273319159978,48.6545347944167,36.5046742197667,29.2840630661833,37.3549684840833,46.2320441905001,38.2084688894667,24.2297081356667,40.2783936925,37.87085409025,32.7371798125834,43.7371791799166,41.3380308301834,71.2818040762399,30.0202847475833,38.72006206915,32.4225843473333,37.1106749383666,28.99810572875,27.83013788875,46.4710903891667,51.1416189857,41.6731883215833,32.8922897574999,41.4291759161501,63.0873225196666,49.0632841518167,27.6054324657167,29.6023986228833,53.4072053399167,42.7443268541,37.9292763395833,38.57672390465,35.2984977599168,49.7156967364167,37.9612682986667,34.6512991955833,33.5002964188333,31.0880253000833,53.7471544387833,37.2604045529167,46.0470579469333,35.4640252346667,37.0157966608334,39.6991894316667,40.6600695535,40.1722639696667,45.0396960591667,26.2347667771667,39.5962708024,47.6216636018333,44.4583742221666,60.84928230065,37.36018166805,31.3289364951666,47.2358798595834,41.5178684579834,40.0055580728533,33.4849680949167,50.1553073648334,37.4441233045333,46.1224389790833,45.57383048225,41.9944717198333,41.6554254934833,36.3796228589001,30.7738827491334,41.7255365029166,27.5252283215833,55.7928012135834,41.9902914676167,48.4992997334166,40.4809028452834,41.6419794048333,48.7434297111834,35.3187378599,39.7331858704833,35.6836948266,34.02473872755,41.8736045590299,44.9380708880833,40.2104588558333,28.9888359495834,35.62012696625,47.6389721357334,37.3615932193,29.6806586676867,38.3067173160667,31.7220534597167,38.0905310087501,41.61379048458,40.0812832145667,50.9232847594666,36.8148559687501,50.61843143,36.2293599806666,41.643520279,47.0822368715,40.38295089807,41.95584273245,44.5670572723833
34.755231128,1e+08,43.2870205346374,59.1117168690832,51.5094404357707,52.8826870801666,54.1679436949581,49.5452987887083,73.6381987261248,70.1815195169999,32.4099132807277,27.7906753108124,32.5638761994418,62.265516480875,66.0284232549748,41.0859089685833,76.6402183715831,42.4969287172113,22.4379772695625,61.6723247544948,48.1200730570499,65.8349976207707,58.6144657012499,34.4013861919062,57.3415536025999,56.0479016598268,54.1900025512499,44.8146807119165,51.7245641412084,42.5024104934167,39.1461408178283,42.0061560012499,49.6641234988332,27.988239482375,30.6453445207917,67.6978760500343,42.4324978927999,30.0984532128583,68.243906031904,57.7038187292833,69.6186333778351,56.2827896911459,63.2673116200366,31.9080847380833,22.5156434344583,52.7150417596667,37.7439396306249,32.9518086291979,34.1361617705583,23.9074703503191,34.225788565125,31.9731484460583,67.2376383403504,66.2231984926187,29.4437918569849,55.0453861340749,32.9240578788083,54.0148658624166,43.4616286409478,29.4696336902799,32.823052304125,45.8750941325416,25.1459689384375,44.8695003332917,41.6538102219583,40.707335576669,43.6978227349618,62.5434638840999,50.6142720990417,35.60866756825,33.6938643947343,27.293699082525,63.0202409572334,53.3689942813749,34.089829521875,24.3486970380842,25.5432047476666,49.5526867567502,42.7494947955029,53.3090166806959,48.6888583167499,49.5219197074099,25.6004554847083,43.2754121227374,31.25383629725,65.4175971229528,48.2598539404166,65.8024312531249,37.5157070034792,45.8346926320416,49.483675782029,55.57069677105,57.4636540643749,54.1674096600713,20.6761326517833,52.2644887209667,52.9283300147749,47.6892766524584,30.4485269827833,54.0521299562312,43.535143250625,42.89600363835,34.13452858235,37.7884307256249,40.069159607125,45.15652674905,33.90749377275,30.694131147125,40.510673238125,34.9098465153751,47.874071023375,40.841147297225,79.47403262124,33.0421578095,45.5745135423,28.47104054,37.659904727325,27.93204699675,33.303927717375,42.859628254125,55.16148809345,38.1165369407499,40.02389438075,41.7988152919,58.408279418875,42.981309530025,33.69550415755,35.1610184288,46.092094616625,43.978495615775,35.5204740187501,42.17419544965,34.1505228926249,46.14539535525,35.875406741,39.58881845125,33.909073069375,34.391638506375,47.8999309424501,31.161950252375,41.5181812268499,38.8416765318751,36.2868877492501,38.340449634375,45.538551851375,37.902004333,47.68793683125,36.47556549575,37.4607755723999,40.80344795325,44.617350369125,57.776227882275,38.701780615825,32.713232415375,51.9100827528751,42.25601119435,38.41677723127,31.50314181075,49.4045102187501,34.3659347928001,41.483820327875,42.5450828969999,50.3383991713749,40.0308414959,29.28796282635,28.9586312447,44.4777836849999,37.0022405256251,55.76461744925,42.485746110075,47.748850041,44.0033916943,36.11013367125,48.66783472035,31.60885554065,37.96753963795,33.569871069225,33.064733194025,42.92497265503,44.9687820905,40.47385660075,34.4852778345,35.443872671875,46.34080817535,38.7781777005499,34.81731876452,43.8401925060251,33.83140897105,29.632116340375,38.212454180955,42.9202786089,43.873193607425,34.32564398925,55.5250773821251,35.4101311409999,38.879676800625,47.024162218625,38.96884704718,38.9757755687,38.731937381425
45.6040139298874,43.2870205346374,1e+08,34.6945443136125,26.7087564105875,31.9297306190624,33.7776077998002,24.6147019927708,80.1339090443458,42.3060163701039,55.8765676809735,36.3038526812625,47.7045195552624,51.7636521356917,39.798688805625,34.1187898003249,106.830243813542,69.9335269718284,40.6574243994999,46.9694676068163,39.3292308470247,51.4325210435375,61.016611116177,37.3901503261584,42.1394949869916,61.6502333461865,40.9677726144417,44.2459640984041,64.862219687279,63.4927392421812,42.2271453096208,65.0341032982561,48.5006792765916,44.744226268541,57.784417109175,44.7494956073478,41.2919381460916,35.4787312835083,69.4980834831997,70.4766381667885,63.8982831892798,57.5648020018917,63.5458233827183,51.219544397725,51.0131502690706,60.151195512025,50.5330555012521,30.6842566922687,20.7358695237875,45.6762818964574,45.9840144382791,50.1178566909583,63.0503379519215,47.9459152210261,44.3152853425647,54.5381785270125,52.9874817553425,45.7277416486709,42.155276567827,45.6555568528532,34.6412220497124,55.5123662545083,44.8588932843,58.368080698196,58.2335301698646,30.9552858113945,35.1215564206374,48.030682607025,46.6503943121042,35.8451154028749,18.9656867152687,41.2422606183475,61.6044431705417,33.9867530366749,48.7332787619936,46.6059569696349,44.4418636012792,46.0263222458043,29.2866378084875,43.4953648116375,59.3481548034041,54.300255622245,44.6254061801125,63.2274479519499,45.4247125585084,61.469044326456,62.6371965693625,61.2601317217957,33.0536221233707,50.2078243229416,66.3572708531583,55.1745616149998,47.4562129477916,40.7959043256488,45.7702454523874,59.2858599778957,34.0928444901125,37.8929298658125,42.3734212379791,88.5230142362458,54.4697326228708,52.8855130585332,28.0235841935167,43.852514086725,32.2209056574958,52.2053847350209,26.4972902475584,38.8796131645625,48.6395392045791,36.25352863315,53.2696711273333,47.8002027745625,104.442538122711,33.8822516366167,40.0460440705417,36.7212639870708,49.7886426960416,33.2510565598208,41.7419261567125,46.1477412598374,58.6822235741416,55.2878232795459,48.6809694340667,51.7918304281583,62.4504636608626,53.3947972319791,42.1010734537458,39.9898167921375,50.7831620817375,53.2848692454875,45.3329687597709,55.7842784078959,39.1886521953667,54.0182858645875,37.9675917019166,39.9202176450916,45.6550260488042,37.5597410769084,57.9829237428709,37.3146296400875,54.286008660275,51.1856763635875,41.5592504426625,51.5197542211042,58.8085044673334,49.9955387283292,59.9098607128334,29.8742841045501,47.0265615414625,48.7989168777209,51.8705180409875,53.6207741036584,46.3244560908667,34.0654910571459,58.3778582598583,46.6742132396959,53.8340821987618,39.8954956745,69.0267401366331,35.4945070572876,42.1546573774916,58.4396612353626,58.3947688920791,32.2240035302876,40.8694125561458,38.0876329018792,52.4246548440624,39.0026620301083,73.9462999073666,52.7560614789,55.9090683872166,52.0829075419959,47.073906838375,51.0157675257334,45.5181877210417,41.0028986777083,44.2609998310459,42.0831769179,52.0462299200716,56.37472720345,51.8356228163417,40.5906878007334,39.2868976143792,53.7753701929084,33.1203343223833,41.8508239238883,48.760062336825,36.3910435695416,38.7957611604375,46.06214868893,44.6303271086833,49.9592521070958,33.6848368454417,63.3277414130042,40.765175776775,46.0622480648876,55.9767099334333,32.87322997772,46.7781878775541,47.3183054135208
30.6591267177083,59.1117168690832,34.6945443136125,1e+08,31.205409761375,22.9313992172499,39.2615108841665,26.6786006840916,84.6868399929582,34.917265910625,62.723959663084,39.8778237235624,54.9044234425918,70.6028191002083,48.9202516556,52.8912478845833,81.0772786499998,72.5876353938976,44.2889842628124,55.5267400495746,45.9078727656583,25.0783770147917,50.6182539515834,31.611521721875,18.0249862026167,81.386992942918,60.0530078888335,47.0064887410417,49.2929228706249,72.6218400061562,31.7346518481209,72.2947643214479,62.3968084096248,37.9713453895536,51.0154431467082,47.4352797027166,48.5939320778895,50.9159065370917,64.9007986139168,72.1238587668249,68.6782367154882,49.7189373061251,62.4374342280315,54.9721254470417,41.6454463011665,36.1895131927083,53.5507945302479,56.8126214306354,50.3095692942749,47.8801419580067,53.3897578463957,45.2268165385084,41.7680184130526,49.7616699140385,51.4974622669214,52.267409484375,57.2372312296218,55.8045149157083,42.7862031977603,51.3291832439066,36.7254059439582,47.4268374801249,38.9810418996875,67.7460346693542,67.0996690512917,56.3765971769678,53.3455291092892,43.5405847165416,62.7647154861667,48.6150302225417,50.1639552454061,46.8835146044933,63.8213324001749,39.5957187097499,47.243457649677,43.9344237564141,34.2789119239583,61.4179246031457,51.3281661171427,58.12711863795,24.1839440972917,60.1977236980383,48.9248809869584,49.6562690371958,35.6333345206457,67.9616157553014,45.236205822125,58.3535933415832,38.8214006338541,44.7496386139581,64.4364289625291,62.7950075256331,44.3632032509166,56.9937210822796,44.6296361079833,50.406260102675,14.6494749037333,29.8657395925416,42.9517589188414,66.1286017939458,51.076880389625,43.9018800252666,26.6327117542333,42.8097749261667,41.6467385007499,40.6933682613833,26.19412416275,40.4943643408334,42.7035796004166,32.869754226125,49.751202754625,42.2671080424666,74.5642782415234,32.7678805882084,32.4312932738583,35.676988608875,43.9370156383251,34.5285597504167,32.5335692560417,46.6632201756249,52.8637929794083,50.0300015475001,32.7466201824583,40.637197956775,62.4395630269583,54.7529744540666,33.6299285433666,29.3543013203667,50.2533270215833,42.6953102549333,39.1666788545833,41.5495231661083,35.5437963267916,52.1754174322917,41.3600878400001,32.7616527934583,33.7355021355,35.2154084790833,53.663785554075,36.1428254030416,49.648983737725,42.4960356301249,38.6391960952917,44.0532582575,43.8542430497083,44.0066906038333,47.2641957666667,27.0950523324166,41.1285204936917,50.2411543402084,47.3940585696667,58.4501887754417,40.3955302299251,35.4418256941666,49.2378146308333,43.886291307775,52.1116588868116,35.3717887444583,54.1559921909166,35.6535531082,50.588067903125,45.9677806292916,40.2010885942084,37.1488551544416,39.3727508507751,29.4943157920917,39.487001070625,27.1298905667084,58.335296724625,46.5762623944917,49.0314498916667,41.7249348056583,45.1038086279584,46.3137097811833,38.4557453049,40.4318222598583,40.306433023725,33.338252245725,45.09863949153,47.733538287875,46.9248116760417,31.7885724995833,37.8875291319166,51.0607246425251,31.5459898705333,29.92354657948,40.26667845065,31.5095860844916,38.1406199333334,39.5901297202884,38.993389367275,54.3079874755084,33.4742216275833,50.2884749040417,33.9753151575833,47.4839857085417,48.1786186066667,36.0998416047783,43.9978551078666,39.5023218612167
36.5200025017707,51.5094404357707,26.7087564105875,31.205409761375,1e+08,25.398239281625,41.9811337242915,25.1902258093333,77.9092647092416,44.6481554347498,43.7824356313735,40.0582034901458,39.1882954787249,41.3967498479374,53.0667675627999,31.9365685755415,99.3107176569998,61.5493756601632,41.0564754277291,35.7102143748551,36.9879164607167,50.2086338163332,54.8324056934686,36.7023844964685,33.8967379685458,72.4141291077485,43.1181004978123,59.4995714740623,60.0848247366461,57.2796218051771,29.7574993014467,67.4353249033646,47.3374928504375,37.5626935690237,56.209229682771,21.31016137865,51.5228192492726,41.5910965642466,67.8678768119872,68.8655701391718,63.7884016957541,44.4095765012499,54.9390704049601,46.6055004074998,43.4454540588125,43.3457055332709,43.4413046347935,35.5153823203855,27.0207672928707,39.2729960205941,41.7128376734583,48.1198185277208,46.2981175873725,39.9942304501552,41.5997510521784,52.1352727914876,47.0986661659915,29.4923178919375,46.4583174064061,42.3413182995182,39.8386087566457,52.4790031644168,33.1148090984166,53.7537281924166,58.9405681028437,27.6698160870207,27.5555374734707,23.8293666428708,48.7775463437708,33.0287480411041,27.516602223052,39.2591952472089,56.7044983447834,31.9871009873333,36.9491414203228,40.5633965350467,37.0966944722706,44.867751364875,26.6366541183957,33.6282205243459,45.2009769365208,48.7123818104867,45.4454275090414,46.1868174318834,31.6470688265416,61.6789411271018,45.4801095154375,39.8924153003125,39.9951201380625,42.6220722998335,66.2500006326792,56.5728628805417,34.9070702567915,40.0951433610447,39.5486451531167,41.6037526558334,32.2347632581417,30.1688544932499,36.7395120240415,75.2113084046127,47.3500983562707,39.7785254699541,35.9673922960042,34.4362169679166,43.0562903082083,40.4892766217584,29.2687781467292,31.2808633166876,39.2778745972291,25.1193809723124,46.4901916926042,46.3026186702623,83.7922549411689,35.6733135320833,35.9046552267626,32.3056663018334,39.7803227239084,27.5181782212709,29.7697325961459,47.4346268493541,44.8269000917625,42.3377332815417,32.6576915124375,42.6550338864,61.3144278112292,55.7613238839417,30.8541267419083,29.3149036124084,48.712688669125,39.3410757920168,38.022200356125,46.9021593386499,32.8028212498126,45.1567432886874,41.17511361275,27.1430841972917,32.9727086140417,28.7521820580834,44.5851523888876,29.297067271375,43.5601871917666,53.7947618562499,28.3619575999167,39.1387289317916,41.5969201976875,39.0344357146875,43.9861225802917,31.0084045879167,35.7783292471292,53.3188714212292,42.7026794438333,50.8716693184624,36.3337918140084,29.7071914527084,54.5543514466249,36.7274730524834,41.8864306840408,31.7296894271042,59.6587304993542,30.6971704747624,44.0887118259999,44.9814058809375,49.1535891947918,38.4538323362958,34.4598765158999,31.6093591699458,41.0717623970417,28.4664427581666,55.1056388550209,37.1162566321582,44.7665014003125,39.3369988105625,41.4574554174792,39.3065168862666,38.3872431662749,32.4657278550917,39.7487729620791,34.3519574259749,39.2587507939676,45.2069931414166,43.7879399055833,28.4839214803958,42.4543478381459,41.6062398234209,26.4866009504708,30.7769297740843,31.9210540995458,33.4435410508042,34.2991404166459,36.4474000676425,36.7083408022751,49.9724682380708,26.4331692421666,51.0757342901874,37.0822222579167,40.4172560701666,46.6101589253542,28.2873579964866,37.3072883734916,38.764961149175
29.6568867187916,52.8826870801666,31.9297306190624,22.9313992172499,25.398239281625,1e+08,52.7532427272497,17.9124417439083,83.5572041729709,50.4114110612084,56.9189179072922,37.4263059513124,50.8045390520583,67.5060874241246,62.9011278702499,47.48296698925,99.4421582488335,62.5504731498938,38.5973278675624,54.3827100690692,56.7056263799916,29.9675310475416,56.2156325801979,30.7710774486249,33.6393113942,77.1510762864083,52.92644904575,52.814382712125,55.7831770382918,65.056008885698,32.5141727058707,75.7080909137813,50.9774733567082,32.2404262843392,47.4835443723751,42.4752251579666,52.2004451273061,46.0192599731749,93.7076576919168,69.0065277369051,69.3482286902867,43.9227720863749,58.9520587967549,64.2778364350415,32.0391192380833,32.6414512854583,43.3419603225145,54.1431218218019,42.2427200749248,44.6721836654274,42.2543007046457,44.6402340258084,38.64281882357,40.5987939035583,40.2172486392391,56.144317592125,51.1075097309017,55.2784780862918,41.8773513692604,40.9593835224591,43.6688158870415,35.4799294488749,37.1511269596875,57.1913078699373,59.5288534116145,51.1281548163893,46.2725925733964,47.6162391521917,51.6143400182499,37.4264548676249,41.9650881927811,38.2715221288399,59.9900743400582,50.6989772524583,38.4482272715103,42.4856852559176,28.9104457850417,51.0690738623123,44.0190049624642,59.8188933146999,33.36809251525,53.2041480620015,42.8271604001249,42.0689285642792,33.3167276745624,64.3361290973389,41.9565961158749,61.6254533141666,37.4582834324375,44.847273583375,71.8946107792624,57.9380298440167,34.7697008173333,46.4151422631607,43.0768944702001,40.637386236425,32.2274392309833,16.057538392375,36.1576859857582,65.8378103544459,49.8699559141249,42.1994499209333,31.0935058664,38.31513883625,46.5015441732499,39.4812005678833,29.3850435613334,34.7352668788333,41.94278584075,27.0054110425,45.0342942565834,53.3680452220499,101.999968861315,36.8827035722084,33.3554458323584,35.1090903312916,46.5591058459083,27.09942507625,29.7412169265833,50.4795870787083,64.4189106464916,47.3781638950001,31.6094810119583,40.5498071978584,66.5146757387084,59.4773455419834,27.8277476564083,27.0116880142833,49.6913520446667,41.9010469540584,37.9884343541667,43.6240326789418,33.5487185334583,49.6626132719583,45.77534833625,32.3573692564584,36.6770149815833,34.0439688914167,53.7891437579083,34.0412448954584,50.166645876225,57.1697214410417,37.1631073302917,39.7949239751666,48.2484698975417,46.4356087046666,52.6619956119166,31.423906576,41.023062370525,54.280051165625,43.88035161325,65.3868389750584,32.7818234960917,29.9011951810833,61.7513487540833,39.238518280275,44.3577000151616,30.8864267486251,74.0986060800833,33.1453310663667,47.1515872907084,49.5118664652916,47.3576596749585,38.7021826311917,34.7621354531917,31.2430004880084,43.6321461192084,25.0665963242083,60.0386738867499,46.9514161109083,49.966308754,44.4305829081583,42.3766716691251,45.35922519685,37.6843690885666,38.476159172525,37.2049118531417,36.024375545225,48.8008884953216,46.021282015625,44.00974986025,23.9017437026667,43.9386838521666,47.8925989754833,30.2553313803666,24.79062772123,39.7379092747333,31.0315041906583,31.40626727275,39.5110450808717,37.2572948851917,58.586735282675,29.3821384075832,54.2036751912083,30.3688451465834,43.5450606697917,47.9931244433333,31.963678838945,51.7473765662833,44.15184023005
55.2653372485417,54.1679436949581,33.7776077998002,39.2615108841665,41.9811337242915,52.7532427272497,1e+08,44.8484122400499,80.4898353986124,37.8369777558331,43.5056644069026,59.2313156813542,52.0416706032748,64.3792599882917,46.2088607458583,18.7932997454583,88.9667907697292,60.2881821831136,60.5562567448959,55.4378043672603,37.1675325565623,56.1760416837499,37.5315172478228,61.8338414675519,28.1501691496542,62.8803441840607,54.4303590527917,42.3103770416666,68.8818601309581,44.605800297073,45.9938341648433,49.7988792985311,43.3904063012916,54.1660370410954,51.8728448271874,64.5564745257417,59.7055860360334,49.8939354371283,35.882353993779,59.0640520423969,53.4110576899183,71.4353740988749,48.2386031294717,48.0995061441248,52.8651636655,54.6482238864582,47.992017636398,35.649508746052,27.950565782125,57.2272286060265,44.3927209040831,41.3922468578333,51.1175523276668,62.7121004336917,44.9422262698874,43.2214959303499,49.2507892592083,40.9358462280415,32.2044624762812,44.8994719144124,36.9068741416667,76.2471724510415,43.6128319743126,52.8862697938958,52.3129805546562,34.037255787725,41.8665922663702,42.8302080063583,42.7091044307916,38.2199395497083,27.3496817473333,40.8091700644666,46.9345230643083,45.351305144,46.2647627709894,61.4437471332991,52.40621201,56.0005596107082,32.5020487119107,37.9511477008416,42.4867714821874,45.1682396491849,50.7048484451251,60.1200234769376,38.6096544406041,49.8032284740732,54.5115611781249,49.0851953658333,39.9138595603124,67.0556876670834,58.0291251057166,42.6763287387582,61.7900446106667,49.8504900394465,55.4163461716333,55.8737289703332,35.8271518406915,63.7715025635831,58.2809664543831,64.4372444401373,56.4865125847499,56.6945048254959,36.9317807294125,46.0264783343959,39.1240709958126,53.8921974471332,34.9106826803543,45.52662387375,46.0323497342083,48.6065998673959,55.8287466990833,47.6019024381,78.8651596957192,45.0544624587291,59.3374484419458,50.9167091733541,55.9228530558249,41.1445406632291,38.7315587727083,46.9919408411043,55.6649684705956,56.7636708992709,47.2619624711459,57.0141759656291,64.2930201104999,55.7959724274625,51.2752200423208,43.2494883646333,53.5347753724167,55.6470848094959,52.1648852761458,52.7831476444625,53.0008403413749,54.0509048689167,43.0682968916875,48.8183019614166,47.5659144553959,45.679409412896,44.5117097712834,51.1590622838958,57.9580436595373,48.6388670995626,42.4699744779167,50.5513733011458,56.9436938040416,53.1022775854999,61.9918332851666,42.08086629675,55.3417840256292,47.3683165350625,56.0941883647708,51.4082775936708,58.6139345263,49.2280979142291,50.5883736645835,54.5348444744124,56.019063967645,52.7289334895001,53.634730111604,50.8711556091375,45.0542951824167,56.7623430982916,57.1189463838958,32.6301582649209,54.4125399287042,44.8774976041333,54.3774438927292,40.4275567388751,77.2987972975624,60.0759853024083,62.7399489916458,57.5873214103876,49.2752039965,51.7583604405583,50.0681458341707,41.3637803496333,44.5837094056625,49.9195117678626,58.6784457213217,60.5994178581876,54.1811026484791,49.5033269899999,42.9064325380625,63.0105985588498,49.1743361421959,49.0847546500201,51.383641087525,41.1426914453625,43.4231765845833,53.3701272435383,46.4735653792542,39.9558895475917,46.6844551101043,69.6884370386459,50.2523026334166,54.7810258254375,52.9001001613958,48.7425737545284,49.6315832015125,54.7797904471542
26.3005910603833,49.5452987887083,24.6147019927708,26.6786006840916,25.1902258093333,17.9124417439083,44.8484122400499,1e+08,95.2177687842624,44.9765323575833,56.5256215430923,30.6516610735208,50.1728917673666,70.9935160568666,57.0829771003083,49.4307888182167,75.9090992263668,69.5044999645587,33.8144955619166,55.5276275581038,35.8409261152666,31.8851890262999,65.7210257776314,27.6442016886666,32.0797804309417,64.1857487400848,54.9096971834917,36.384138414,38.0047250011999,73.4433631113563,27.9794262662391,68.7399567199893,62.0892217320666,39.2164111144165,57.2185972286458,51.7236708975583,49.9783021376979,43.6975472829066,64.1929960199667,84.3580891153384,84.5330034710048,55.6199401582501,72.9704813788898,44.1599014846499,42.6485838614583,52.8423623901166,52.0129956816062,34.6253805338938,44.7193919085999,44.3307049463566,45.2153908344207,47.7024054986833,54.8276471699526,54.7246539310969,42.7042351454941,71.4821816726001,49.5533709315,65.4534049146996,28.5522234630021,44.4348883702741,46.3200890759999,34.0376554502167,36.7959266789791,70.443590819379,70.0495253734729,52.8558508792928,53.0161949949475,54.9446061863334,64.2587887221082,38.3742082632334,44.5737778597311,39.5601904753184,74.9360710947833,48.7415716357666,40.8115333537021,44.286756306434,35.61077417925,49.0003799165541,50.998832002801,68.1968740894751,34.2259461413333,64.38384323949,47.9928622840834,56.7950007318292,33.5233073001374,81.7056367061598,55.30378099965,73.7256604777082,21.7479946775625,43.5760295183332,57.5086362210707,72.4587617232998,45.9651292412083,49.069584463188,44.9274488917416,53.1709138764332,34.740913011425,19.1919990111167,39.6773020682499,84.7351488054459,63.8501993648834,51.6558977191166,24.76222226355,48.0827360570334,37.6327239768333,54.0773501182333,20.5858786779666,42.1010417055999,51.94324879805,34.7658204050833,61.9780413827167,42.5635953346334,77.35546881004,30.2872473641666,37.56409158795,34.3413049142,58.3535361536833,31.5634917722166,39.6719141854167,49.6022875221667,59.6231134118666,60.6227679229834,42.0035139378333,58.3479515234834,72.81828174565,50.9568483219334,32.4302601425166,33.67431854515,57.5347713494167,57.9710587557834,47.8781624098999,57.7451631988,39.5688582749333,59.6398515150501,37.0888277944334,35.6268345997834,45.5142825753499,41.1425368375833,64.2218524182833,41.1768819903334,66.0330456607334,36.1805681086,48.0785374478834,53.8460781778833,58.1167333529,53.7488642234667,61.6389651764,23.6346558244667,51.7840166926,49.7838439221666,59.6826941430834,59.6078679708167,41.3544936924667,32.0933811377999,49.0726514699167,57.80592247965,61.4172005145534,31.39966194745,58.0711451625834,39.66036145105,46.3794050390999,66.8989049233167,57.3635348103,33.47537937475,40.7400082641499,33.4868622213,59.4552629225334,32.0832009028334,75.1007017306334,57.5824820099501,65.817695262,56.89842328345,56.2589215147334,56.8161856949833,46.2759461049499,47.1553336023166,48.8531668057,36.9525152261167,59.3387831047301,66.0889830623167,60.2261048933667,33.2338922380501,35.5496817687,60.5944746033334,37.4784833906501,38.4158723770967,52.6196045629001,28.4651618717501,40.9324474983001,51.1510132472967,50.8279858653666,52.5547738714501,35.8582063318,71.3542128982499,35.84264454295,53.7204802746,65.63971777375,40.14718658737,56.2731915013335,48.4116553768833
84.0986077933333,73.6381987261248,80.1339090443458,84.6868399929582,77.9092647092416,83.5572041729709,80.4898353986124,95.2177687842624,1e+08,100.461284749858,57.5394106772131,62.9110385821123,77.0167201124832,61.3028753704375,89.2397606050372,61.4982554051873,105.864545514292,53.6347204973843,91.038179551029,61.0496815161678,100.08585140395,58.7142753541417,43.6656954624916,67.4154955835708,89.1085563504374,25.3209378300916,73.2351057798124,102.035647467646,104.478031526208,42.4210815166437,68.3803099647631,76.9557725855246,44.1662013432375,94.2575465926724,69.4079379116333,59.9488119045593,62.4773522443167,54.7247007745516,96.5830428990125,54.1963462479917,51.4690614378415,41.0013203541479,53.9875621579082,87.9689877800583,86.8867109995415,61.3372213401041,55.6896439754311,81.4345389305812,66.2090137625041,84.4698460007124,58.5169059760582,65.6330824753747,55.8815202400169,36.6531069224417,64.8280389733951,48.8149196339665,66.6906361936463,65.4541415692497,96.6720436073226,65.2027718938599,68.3960030539666,51.9038893762,81.1247645922167,50.4315519327749,49.3816460836437,64.0854455180487,55.5608343608189,72.7850812731288,42.9301221577582,62.7045800788833,65.9689076385625,70.1768506999883,52.0092800105,86.0176293683292,65.0488348951644,85.2874148631282,89.2450468597292,82.0682478519373,57.7597538342738,66.9155335356167,79.4558125849166,49.4518288193416,74.374111470875,62.0767390772124,77.6271696592999,55.0741080656448,61.3161633784875,78.5508107976793,85.5662534643084,81.07424144645,69.621043016254,46.171856793629,37.2836914067166,67.6584113233751,87.0027595498832,53.7433257544623,64.5781346672999,74.7277664678251,89.8472260731499,65.576718289348,42.8940731225333,50.6701131591208,68.8185025217292,57.7936272946542,80.8552888521917,51.0384934130459,65.6584303409792,57.1823323311375,42.184762036825,78.8418308363751,37.9704555487083,68.0336712225416,58.1870683597484,82.5433044619458,97.2229462708582,76.5521318175707,45.8028703305001,67.560788314075,53.6655441388459,48.7255363036791,42.8722910848376,40.1391129679875,49.3037214795083,47.388209046846,58.6757202960917,55.3278529747917,68.2409086772501,80.0311588348417,51.0616400094041,45.8454857797791,57.7068405880209,48.2226335782125,77.6398610799084,48.6327395217291,68.3731552861875,56.2721278638499,45.3723251557,61.3222021364126,39.6622602075541,78.9330792357959,49.64649757735,82.6102542541834,51.5396292976249,44.4199927239667,47.0614184706,54.0867510347417,49.7803715068791,56.2388597769875,53.743391148975,41.1256359124916,48.0760138255792,46.2654024120625,69.2012294286791,75.9335352879293,69.5470305502666,47.6382860922791,44.4586893159243,80.6855668897291,72.1476949054417,76.1363470334332,43.5637679606958,44.2917102692667,39.8936214884583,60.7248420559918,82.15909612495,72.1751027328916,43.8613064789,64.6836692200334,50.886468961625,53.2367851518958,48.3047117943541,49.03336030205,47.2179856619958,47.3905650111833,49.1676515943125,52.6765320796834,46.267179001,55.6361402890791,51.0554418358215,47.9635487650166,45.8977586602541,76.5125122512125,68.7872477974709,55.2611608196458,81.6880408489668,61.1949916064843,56.7112855877333,58.179970826429,63.2975254304957,47.3558441595216,55.5233980368583,42.4948982030041,78.0200457269668,52.6845464041751,59.1750258571457,51.6370101201041,41.4854430576877,67.9321230037384,41.7032719945167,57.7026881261791
62.7433398456456,70.1815195169999,42.3060163701039,34.917265910625,44.6481554347498,50.4114110612084,37.8369777558331,44.9765323575833,100.461284749858,1e+08,74.683370967565,61.2505855346041,77.4417931631663,78.3740909435621,33.9922648432499,54.9288772533334,76.7147237122499,89.692778151486,62.7742646208122,65.1325181129329,47.8284900186915,50.61096786625,60.9068939426354,62.9861231287187,36.205177916275,83.6207882162989,67.8373772669376,50.4999285200209,71.4692527905626,80.0621269177605,59.1657639792456,75.0742308940103,73.6441522598333,67.398097580598,71.0458861025625,64.7224271784748,61.0486139882061,67.2754985344032,58.2345873819791,79.130754592355,71.1586556591351,72.6809394631667,72.5790620509865,68.0669934959583,67.9946442570207,68.808320707,69.400260895806,61.515482737823,56.3216209597288,70.5888324901751,66.1097672826041,59.8931765645667,60.9092979901556,67.724505258847,65.2135685195108,69.6352210414123,76.2522401741266,63.4419931906457,52.1112809334479,65.1133986152906,58.9220793218747,73.3244422119166,58.7960793157706,81.6190076702289,80.2301392366562,59.2543264951506,65.7926925226886,54.6782116428125,73.9124782335415,60.4015190039165,57.0522729669684,61.1385657395349,70.2982241008832,43.3796089931249,62.1770050212813,73.93426653439,64.7057609344791,70.4045253857498,58.7240211039967,64.2422025734041,53.50337982525,72.4533391529398,68.9684774933333,75.5010549575125,52.1101452166458,69.9297650025099,69.7568342521668,67.4239748782917,51.7874471114792,60.1798442617497,77.0336180685749,71.101291750175,64.5138911694374,68.534693404884,71.2547397420583,71.97093653195,43.4698175017916,62.7698504949167,72.6733402370625,70.6528643949502,59.2845197192501,54.442805119225,30.52574186565,47.0379762493751,35.1129996295001,55.6165653725501,32.672817396375,45.9628299875625,48.8571799555625,38.944334594625,60.1365431166251,51.4965188445501,84.7408818446276,35.6210821755625,34.108927427575,44.8591220503125,56.3204732947,40.7745037061875,47.80258885375,48.68505968875,67.9914004872624,60.0307000267499,46.2449179900624,55.0767026960251,63.3325046365001,57.9506049775251,43.652541842575,38.72274074995,54.9571927398125,56.0973244806625,46.8179854634999,55.0725600867751,41.9308904356875,55.9662667543125,43.8317498374375,44.4062008360001,46.8176910295,44.54577620525,55.4791042203251,39.8117727285626,57.5123924302251,51.825897961375,44.479376236375,53.5922142404375,55.4735535200001,52.08224370525,59.8400764175001,33.0557260065,49.3421003574,48.37710289625,60.2726765209374,57.730049077025,51.2727456106125,36.5355974065625,54.898398831375,54.0756159670375,62.6239746575576,41.23000033375,58.8188966886875,43.0784596431375,53.5455805623749,54.4285695883751,56.9382014552501,40.36568063715,43.5008554737125,40.78369317955,56.0392101846251,38.6055929724999,78.1498818731875,55.8615271002001,61.0557450438124,54.8945405873875,49.651909292625,52.50846355885,48.089221479525,45.3814612405251,47.5629677575376,47.569997610475,55.1767294934675,60.5347811967499,56.5646153411876,43.7027929305625,42.1384048418126,58.58950478085,38.1092219976375,43.53914592523,48.248697224025,37.0696198947625,44.418293469875,53.2116707766425,47.76477583815,51.59724511405,36.6325526905624,65.2970350713748,41.726860582625,55.749106147375,56.3460286212501,39.307713446445,51.0879532210751,49.65877898255
39.6930060918339,32.4099132807277,55.8765676809735,62.723959663084,43.7824356313735,56.9189179072922,43.5056644069026,56.5256215430923,57.5394106772131,74.683370967565,1e+08,40.2240226676985,28.0464417590422,54.6765008055225,78.9004303215359,29.1745962467526,81.8751058183435,20.116011658145,43.2864101553297,62.2467249438859,42.4077740086984,73.1756700533173,52.7792567289517,43.8886795862454,47.6732015999671,55.7766391837079,62.2913006400445,65.8573028765361,70.667771580809,22.4939041183133,35.855909418246,42.8036581366416,27.5062325798549,32.7351248619518,32.0726180597099,54.5035916113132,57.1941938146693,35.131453917116,57.6907545460652,51.3344952815166,59.3773093487397,47.3833071993217,42.10967605597,40.1192539099527,30.8733606942255,32.7488104171373,26.1584837181266,31.4264477436964,34.8452969676943,30.9264875341091,21.3768500991766,35.8223225013016,42.0882281601765,56.2073321211467,30.6069697047417,44.7765440953809,21.6124353592189,34.7793015680559,53.965313418184,31.0140121715967,44.3275062119027,51.0813915146998,18.83078553061,27.7184106850716,31.0959502918216,33.3452713546158,26.4372515245087,40.9397202978061,31.100521444605,29.544682120685,33.9646475668599,27.5136289604617,44.5451195104048,64.4052584587358,17.4807845016766,34.3700062953482,31.4648983662255,49.2644689071692,27.7569886068247,38.9548053478268,43.8447387298547,26.596835383185,28.8465627916266,24.0005003006759,23.8808191749349,54.1998876993939,26.42744855763,48.1010822048121,50.2224392466318,50.7457633683524,46.6471861863507,42.4420320124675,45.9146004985216,46.8137724329083,29.9987908347349,27.8893406932466,57.1064864093861,49.5600151145351,31.0998214823683,33.8589292243196,39.4346158019341,39.0553606689352,50.6315080581266,37.7420653776063,56.3664811527586,41.3035124308566,45.9084318950267,36.6475418000892,34.8033055651902,51.7879124885153,43.053759597508,44.205983095918,59.9255460169566,61.5152223826978,82.7624153849058,48.3739504949788,31.1702178093886,35.687303221137,30.0933983413427,40.1655770041914,46.4721577830854,36.6479597049142,36.6208718159572,39.3133385767818,56.6811193909651,45.2970098691719,48.6477029137715,44.6072508787007,40.0015884152998,39.7934712527265,35.3758957188188,38.8125228165795,55.1452262348308,39.8974970765867,41.1523078420071,46.1678064654398,34.2771176657813,36.014411986455,42.1114033073486,51.5878874342933,40.3606451095325,54.6164148624788,34.6827566932677,37.8774769253038,38.842823629668,36.9463808564979,45.2983444260048,46.9658013046117,40.6222797783624,41.7519750266398,40.4625484279403,43.3738662212898,53.8620057052393,53.2884317966195,50.0097894342773,40.2655914919992,34.060385356306,53.3917563983526,50.8738329488537,53.1511306951121,35.4655324131283,40.2909722974471,41.461973115362,42.8263782098629,53.6737575624965,49.1837936861423,38.7392327674631,39.4611919866361,55.1052341188383,41.9399612842251,46.8916194233994,42.8500563648973,35.4721358212461,46.7147584043503,33.5737212310196,41.9395779674614,32.6391677304382,44.814997464538,40.6987511303251,44.2038984745779,40.1382565618994,44.7129100842797,42.2000975189183,42.3831033946964,58.5676866297619,43.5853152789473,37.7247506271814,49.8156270190809,38.9057111841785,36.0368856038979,41.841823409501,41.7391064688537,55.6563955202432,53.4146977156626,49.9085045914788,38.1979416994083,44.0245280173608,52.1309901527724,33.5558865295679,46.0177241185321
20.6190179649374,27.7906753108124,36.3038526812625,39.8778237235624,40.0582034901458,37.4263059513124,59.2313156813542,30.6516610735208,62.9110385821123,61.2505855346041,40.2240226676985,1e+08,38.136742219,68.1492030768543,62.9751057220874,44.6799553666874,65.9127353455623,49.6871083832533,15.6433498915625,62.3718700594941,50.5617494168,47.9604327056458,53.0258761070206,14.2607658005208,48.6097429391292,54.7019016680525,59.980048134729,36.5057413803541,33.1935197339166,39.7858889098333,30.2627206301274,52.0190618722917,39.4677815864166,28.5688815690357,39.4299135297083,54.6922381198978,30.3828556489541,12.0746882688408,71.124349085804,50.0130645257916,67.7755735867151,31.9750482552916,51.2661430925783,33.4588753991665,33.6781844354375,39.1838888069375,30.7632436437916,32.4984802091562,37.6436838994874,29.9241324905283,29.7025215546666,28.5305141991749,53.128797853382,46.1501364880229,27.7058143935884,43.8552298138875,43.1714684968398,51.5781087512917,34.876835360052,29.5651800868233,33.9837924218124,23.0374545562916,26.7067954686666,32.8697840269583,36.0893820907916,47.2246000806321,43.2088295223519,57.6042157478542,43.5949222013333,26.6784275690833,35.4936869837186,25.925438304295,51.1859513070665,41.736736110875,33.1594518128749,31.6618622718591,29.6865788115625,47.7573151436667,38.4179319676696,52.0741305876373,36.5813698768542,38.99997610204,32.6124285764583,39.2133490049374,25.6900902703334,59.3787862975677,38.9600230998332,62.3664626785834,15.5656153162916,28.8123578296457,50.4149270135582,51.9653760082625,36.5239221596042,53.5935751166757,30.4550780466583,38.4368300560832,36.9649127005125,28.4066099936875,34.7963024887833,57.3064287690395,44.9538515492291,37.6336721576833,27.8686326063167,35.7599953017083,37.0565798116875,41.1166821243001,22.7189057184791,37.5253894304791,35.8996167949792,31.0653030987083,41.7891322661875,43.0689341993,74.2938923653566,28.7536090341041,36.0678940373833,26.0821142980834,34.5153657496791,28.6946346379167,32.8524972546667,43.2782758233125,53.0955072555542,35.0865205380833,38.0622596120417,35.9563043907333,56.8124769706875,45.5743244683167,26.9009382197417,33.8601325764083,49.1493653334167,35.94798536715,35.3407238179999,37.64976272715,31.6770703459167,47.9760317189375,36.3777877597917,33.0470848768542,30.4012883440417,30.3063850823958,49.1255812850958,34.5974406872084,38.1267096190583,41.6086681110833,34.9946989400209,36.9821073358751,40.8491735040209,37.5531496622084,41.1326372552292,26.368395964125,38.3522404073375,41.6638138522084,39.9478675805625,58.4800054382333,37.1751978641333,29.0148314816667,52.6914702935833,36.474562446025,39.2903515828533,30.5398897808126,54.7457662363333,33.01402089745,44.3780561151458,42.1843672867082,44.0727519324166,41.5966839866917,30.9886403492251,30.853865960925,39.1255236041251,34.1759652824167,49.9720010050833,37.0700727883875,41.4638516878125,38.4714217143208,35.966117589,47.886640688975,32.6915988666916,38.234292544325,30.9966229252042,29.5529479890167,40.6430110971967,41.0471644845626,35.8041075755417,33.4503544599375,35.6079065128542,42.9783474201708,34.0818463659917,29.8347233253759,37.7138235925666,31.3672503534708,32.4870280812917,36.3780365332675,40.8459930705875,51.5217453114251,33.9111741725,46.5226261183125,31.9311667023542,36.2923277483542,42.0897747724166,34.9706647808617,37.1134015605541,38.212230105675
33.1293318284501,32.5638761994418,47.7045195552624,54.9044234425918,39.1882954787249,50.8045390520583,52.0416706032748,50.1728917673666,77.0167201124832,77.4417931631663,28.0464417590422,38.136742219,1e+08,56.3602912159664,83.5086532432,37.63247985175,83.1242618187747,43.5549195677909,41.6984910813124,70.3128040266449,38.9444825373999,73.1383909300456,67.1356808890666,31.1531382781665,49.0116120822667,66.3374721836542,54.1039971703417,68.9287031422001,66.2122770766833,49.0563383104834,28.1302106946432,50.7639931387165,42.8237512030249,21.65499349735,46.5076500722166,44.8861123638414,47.6289906849394,31.9296285118065,59.5675024217375,65.5790136266467,71.3772242099497,48.4924109471187,49.15864260935,37.1742834870333,25.4074871283082,43.16589732365,44.4636134670832,20.1884616349437,36.2090742993498,17.9009681610841,42.8922476743166,48.2560015648166,51.7648857248919,52.5823293190666,42.7656391926166,51.0261770976874,25.71678008032,42.1562016276415,59.5543241887145,43.0542301025915,46.5125638300748,64.5943334130083,26.9689413436624,43.7950738703125,51.8266733696562,44.5242138867536,24.5259849903179,50.4249506511918,46.817112998525,38.6625469845499,33.6748468676157,38.55214615035,52.6186629482748,60.5061586035997,37.17142335115,12.0782977419658,20.2616926395166,40.6239743603665,34.8890117440911,48.0397684386124,43.9013444661666,40.6891556251748,35.1945897151333,39.7922588948626,33.0967602134874,62.4215960270951,43.0583873054,45.3811914975167,54.3180481986122,39.4747448163751,60.7116963628289,57.3949554792124,49.2347312033206,45.8089249815024,16.9480092479582,47.2518085335834,60.2850229588749,44.8729266612,15.5132438710833,56.2685254875729,43.5575309813167,42.96744409595,42.4544739625499,37.0756585983334,52.0462357325001,41.5538617996502,42.9765603078999,35.4940249496,44.58745678495,41.0102230898168,44.80705687495,38.6106200194667,57.2934378112565,54.8531488938333,74.0741621111502,36.8242597654332,32.9265979716501,26.4935154292,28.6372167078167,48.0125691865833,48.9462831349666,43.8128388339667,41.69152967815,42.7720703662834,61.2008115246334,43.4587929761333,38.1249930311666,30.3892834233167,54.2939525634,38.8805235432834,34.20300642985,41.3439644344166,39.9883724201999,49.5339716488334,36.8250364456666,45.3748929426167,38.3534966175001,31.4784169168833,44.509292222,41.9113160519335,44.5756846962166,43.8907748879668,35.4333183619167,40.560806885,47.2824766139501,36.6131819610333,51.5456630164667,39.3326423274168,38.0027738419167,51.8932344349334,44.5083828247,60.0525476362666,47.3757971728501,43.6357413770665,42.8000594691166,43.3661266208501,39.04598995217,40.5866530904666,42.1393412720501,41.8776533387,44.4335415721834,44.6768625384666,49.0970118931,49.2198027385166,40.5685912792499,44.25283589945,43.4549029925167,34.0780032596167,56.1997992335666,45.2319627607334,48.4500633946333,44.8551466716833,39.4735305539667,50.4158405065833,34.63376675835,39.5897577590166,37.4176933835333,42.6015885225334,41.0453478119132,45.4386686362999,43.3287644913499,34.9583079746168,32.4119522159667,44.0040149161833,50.2147519041666,35.36286012377,46.57945040635,47.7183745551001,31.1272184017333,36.2222495790799,38.7285766801334,48.6445151256667,45.1058449545999,52.1483727573001,47.9725608744,42.7481207363333,50.4631137135,46.2251296526967,40.1769363857667,44.7168934493001
67.4159480183333,62.265516480875,51.7636521356917,70.6028191002083,41.3967498479374,67.5060874241246,64.3792599882917,70.9935160568666,61.3028753704375,78.3740909435621,54.6765008055225,68.1492030768543,56.3602912159664,1e+08,61.9225873644249,45.3293021851665,136.179027874208,66.6818101695685,82.04425162225,26.7374899675285,69.9654762066669,78.068781574146,66.2958220809478,70.9796466792499,66.6441737719749,62.3046826546624,28.088969090875,77.9722578324167,105.940380434334,48.109285466177,50.9565126584067,76.7838090137397,46.5134358196668,69.1257019372501,59.4150911706874,29.4326035721343,54.5598552422686,60.1193409607883,87.6592519810037,62.9000412526948,52.2984195088849,56.566824674802,65.1645796349334,70.1971109036664,70.5335806089999,54.6574180079998,42.945429239027,56.1434191190728,37.0864757432166,63.4608425039706,46.1392216830625,51.22955004145,58.8410293002451,43.6069527272467,47.825603160716,58.458558635925,60.1418094728066,39.1322627784998,70.833977949802,47.1751732503808,53.2305438275417,66.8725906869998,61.3134545632293,58.6151437837707,47.3374240006771,28.9577891694738,34.159093882119,26.4325584849333,44.3872710774581,45.8351989320831,38.156993932125,52.1013141618797,62.9024679589165,45.1409913532501,52.933421655531,62.7345086367099,64.1701268742083,46.2457156957499,33.6125381172738,32.9839753427666,78.7528995572501,53.27568514044,52.3615898875416,57.1648737013249,60.5989042839374,60.0435633067141,54.3981005304999,57.6322275637083,74.4163369349376,60.7804424827501,62.0889271227292,47.739871453875,50.6180631246875,34.5906573835001,68.2379858887332,52.1017506910164,51.0456726918165,70.3334685076665,61.4237251407914,81.7514796655247,42.0122358921251,39.7867863209,55.8403107587249,42.237157094625,60.520665823125,39.066617843475,49.0991800170001,37.9056141780001,38.173359380875,43.161893395375,38.4788079525,55.578937702875,96.7169836802403,59.918269716625,61.438820440725,50.451867017625,39.5898479205001,45.2844462597499,40.8698688325001,46.1794731182501,34.194666170175,39.7650126015,42.8882349642499,41.259484068475,58.8161783347499,57.4859378178501,49.6722163513,48.182515032425,42.0853727042499,37.5471838154751,45.3226968707499,45.766481197975,48.241811705625,38.794509686125,51.1701258435,35.661430164,39.0590836803749,39.8535080837501,35.68891393755,44.255014875125,40.9390472149249,77.5887314717499,32.569621249625,39.4674584003751,42.298448180625,37.83934779825,43.045350677,44.2400955693749,38.2754790407251,51.4563185725002,39.4156305311251,31.4088950766,46.827673040925,47.248927521875,65.7913991751251,33.6406772516,34.667237422705,53.93898659075,76.3564649684999,41.381880907575,38.2610795342501,45.0719020819999,49.33471991225,47.1878965041,53.36739258165,56.6617838325251,41.4379646706249,48.3354119435001,49.933163435875,36.2824330828,39.3280661302499,39.4023764226251,36.987200601375,34.621391784525,41.947955542975,34.258242623725,40.707941396275,42.4421586784499,38.47650135644,41.36697960725,40.90761719035,46.9259983119999,57.269897058625,40.110789369725,42.09184054155,45.46576279952,35.01359824585,48.6990522375499,43.71620700375,43.3100909991099,35.1753116245251,42.376619574625,43.707992843125,49.518827001,51.7134362017498,34.292268744,42.3865898513751,35.338317504945,34.3003411573,39.7718205352
75.9017761927584,66.0284232549748,39.798688805625,48.9202516556,53.0667675627999,62.9011278702499,46.2088607458583,57.0829771003083,89.2397606050372,33.9922648432499,78.9004303215359,62.9751057220874,83.5086532432,61.9225873644249,1e+08,62.6221794767831,101.268425517983,91.4023935442819,61.9614927736249,44.8995303572732,58.8989036858163,64.3265052932,58.2819603407936,67.1847145469834,46.7975047184,70.8243202924322,64.0269099224249,37.1116022605333,77.7177928502667,75.871611193527,72.9771557250833,72.0767227488145,69.0614458870165,71.1985470255608,58.0249755180875,68.8627609702936,59.53960391155,65.4445144150331,69.4246579520208,66.5522531073614,52.090844909015,82.3879587142813,71.5564787973367,77.8676718929166,77.4989819732332,74.5756955115833,69.2465036070772,67.3150535010062,50.2496011270668,74.2590796669534,67.5346354581122,58.1506767810998,68.3425144835752,75.0444871906904,63.5032555007658,65.0356302964748,76.4468516149981,58.9468449331832,52.5795146986105,62.1808552317308,52.9239732595916,72.5193956842333,67.6641500931292,78.7352788086208,65.947941008277,46.4920245911238,68.063589477526,55.75418139535,65.9637543453082,65.0218466599333,52.790074617275,64.76299001988,68.1433560033334,36.3475249986499,69.5668789581561,78.8485245472173,75.1651037207748,80.6253116526251,57.4931687409951,55.3373350983167,64.221544830175,71.32405630467,67.9023005037751,80.440382855475,64.5141711146709,61.2058914158228,75.1482385537,62.4738464871416,57.0825906406206,79.395891780525,70.8463421671458,58.847190066425,74.1743336096875,72.9477643373572,72.5108441226833,77.5840158337999,47.61104830675,74.710609902425,76.7375904651416,81.4624330974501,55.555678455975,57.83859767575,34.863128148075,46.9121893113499,29.48052209235,60.28047932095,36.23512672355,45.7181355907,45.5605206066501,44.841004193425,57.539240860025,54.5854425773749,107.883844317965,43.621052668375,35.219306252475,46.0830703059,58.6541827497749,48.709116561925,51.2466388508,50.208740767325,57.1971462727499,56.2672897806,51.92073373345,58.1716624820501,55.49185827315,55.905075460025,46.9134345993,49.5176891951251,51.8210199198249,54.87327941725,52.7239352661,57.4471350071252,45.161034810025,51.476247093725,46.514109035825,44.573735240775,50.7904290884251,43.2606329549499,55.5863508288499,42.3314479749749,57.741211603825,62.090723153875,46.5942473673251,53.524384038475,58.508620809525,55.7156453531001,62.25748993465,40.367887342175,48.696313168925,51.0046772788,56.30225928875,49.5456136776001,55.897095756925,40.383413429875,64.9866400892499,49.0288559581001,59.11481406527,45.593319878375,73.966696755525,43.41005088895,50.66847675665,59.9675762352249,64.4578324473499,29.20938450815,44.8935952822,42.446178143625,58.7786910670002,49.7425391824501,74.7361930136,53.870143637575,58.022983016225,53.101871051575,44.4791464827,48.5096630396,51.2370528415249,42.6251792149999,50.3941817743,50.1505332711249,55.2167412502551,60.865676018925,52.569105893175,53.854328860025,50.711871709,57.9452752263501,40.2779798031749,54.59001431882,49.748183486525,42.947779249725,45.381573036325,51.86880634523,50.3871372108501,47.6012833483999,38.4868164309749,64.922212208925,47.345730305925,54.3989528119251,54.531687980925,38.356562167005,48.043775899125,46.9789042750499
46.4907122753332,41.0859089685833,34.1187898003249,52.8912478845833,31.9365685755415,47.48296698925,18.7932997454583,49.4307888182167,61.4982554051873,54.9288772533334,29.1745962467526,44.6799553666874,37.63247985175,45.3293021851665,62.6221794767831,1e+08,108.508237546875,49.5341564972319,50.7270134135833,42.4328643463116,39.601357213429,71.2065512806666,36.5206661936144,49.266765117052,40.4181826607457,55.6203036383224,37.0342349999998,56.7471953068749,77.70310461125,27.3639928385729,32.1991609918649,53.2184485913229,28.3385922524999,43.7823421373152,43.9214940841042,47.8095190665498,42.3143907951414,33.4771721345683,46.7300461993376,50.5386411345469,47.9550016223649,52.2713280332917,42.1105713024599,39.8994014941666,42.2844138649583,51.0314341074999,32.494459776823,29.0138985355936,11.46825296635,44.7535111470916,31.6156800663957,35.0003590613834,48.7362652615528,43.1452319973499,31.8639530556175,36.7973464745249,43.33005611399,31.825410078,43.6666476554062,33.4608561449524,25.1326652648749,68.6112095001668,32.0201622249374,37.1140706334376,39.880338653323,21.8926189131785,24.0814046073429,38.8671313697,26.3226263366249,23.1736772222498,9.99149923049992,27.2979398645365,40.42704285995,45.0717904397917,38.7775414585313,49.0166492858308,41.2335789727915,39.14736732025,16.6232811896786,30.1623875846999,47.8893446703959,34.0312285888199,34.5161505403748,50.6362254160291,31.7028322737292,40.4157795209985,49.1278640579999,44.823543926125,36.4478118423959,51.3031008862498,61.0132305925501,36.066142061825,43.4611692449999,33.4842616702142,43.5922837726916,44.4316818577584,32.4978400695999,55.7682377800834,46.6514785621751,63.9435845267792,48.1707748335418,47.5472616549749,46.5890688259333,35.7836924717084,49.5534991532501,43.5533114698832,42.110887197125,40.0870851283336,37.3909365617501,43.0754598331665,43.0751282540001,48.3764473593083,74.2129484894068,50.2005832187916,62.5176634335918,44.9520159837085,45.7782398086999,36.0306769551665,31.6723530834166,47.7265198627916,45.229386180325,45.2177555688332,39.4446765612085,48.2306037731085,61.5994530488751,55.8283585234418,44.7147325955502,39.2709977999665,49.5029204735001,46.4753796480584,44.7836754864583,45.9784448361915,49.3905007357915,45.1220845415833,45.0359079366251,42.0934921025001,40.6757192500833,37.5004555952082,35.68798414545,43.665823856625,45.0016426948083,55.9052974483751,33.13661462775,42.1085268705415,48.8854962794582,46.7200421436664,50.4961748619998,47.4556244734168,46.6523628931083,49.9717473585418,44.5010954413751,52.1958504684416,51.1024443420748,44.6487297145835,51.3119024074999,41.2419927574834,41.1811096426866,52.1797078502916,54.2675462310416,44.8440978257166,40.8349233187084,45.313348773,50.9639885214583,38.4415598751917,50.4315434731416,46.1763697775085,45.785928314625,37.5636043325001,60.6237310585417,50.8926876014499,49.1716363662915,49.5925120851585,38.0064298921669,43.5222369830168,46.4673809431918,30.6722744812167,35.6699910008914,45.4182446489417,49.3740498383632,49.8361031862918,40.9625909517082,44.2231621787083,43.4574708671665,49.8885306725666,46.0975231477999,42.8236115243535,41.5907666488584,46.2428169796751,38.1260629245002,44.7192750432885,38.1286540899001,42.634094640675,42.4860098292085,57.8716716646669,49.1770781749582,44.7025319954585,42.2260262480417,41.6492653632785,42.402714999325,47.6492060191333
74.6380445710416,76.6402183715831,106.830243813542,81.0772786499998,99.3107176569998,99.4421582488335,88.9667907697292,75.9090992263668,105.864545514292,76.7147237122499,81.8751058183435,65.9127353455623,83.1242618187747,136.179027874208,101.268425517983,108.508237546875,1e+08,80.2544478875231,67.1277451970835,112.744575714433,88.2164088776789,73.9576339992499,71.2136928763334,74.7007331194687,80.7278582904123,79.3364521925332,143.946294268374,62.2136722265416,35.6173245659999,81.0094964482291,93.0254063185424,64.5635862239166,99.9501427494998,71.7795192621547,74.0040661834167,121.623497456391,102.713894588202,75.9717670905411,56.1138752317938,85.0984312271918,107.658918133503,84.1454203196247,94.9060843199965,56.3355771233751,75.6608965704581,77.5459768882084,76.7525348940166,81.4976920036771,117.034759601658,76.160009017393,77.3816601961248,71.2339849602497,85.4758159237389,108.496817523908,76.6338552634834,95.4309531632291,73.5998335433,117.317479447667,59.1373214884273,76.7639864956581,100.421859344375,54.9626684769167,76.8421949118332,86.8590837007085,84.8379890666667,114.785282032204,118.973249406301,110.987066245016,102.901646049292,86.6821376761665,117.110355509489,76.5511866225166,95.324406713225,102.577108588083,77.5575233544165,76.5887968339124,79.9112486138331,135.090571512562,116.502401847012,119.484304029533,62.6790729864167,92.2392308019435,81.1356957198332,76.4913182061168,73.1658608109169,99.3727784885127,73.4800835985834,111.615913703292,63.3410955751872,89.370435626875,57.4088119724833,99.6341128556832,92.5459338148332,133.190231886666,71.3157565914166,83.1811414616167,88.6033983052835,70.6085996098333,81.374161380933,51.4095718012166,74.5827639636667,67.5058611306418,57.0785765443586,79.9723848227084,66.7868482789998,63.9641599239251,52.5978008882915,69.4414992713333,78.0682640202916,76.8599118558749,80.6937745879581,55.1803169834666,33.5690162919399,55.4706004204584,74.7184489652834,60.4964710726251,61.2931514207001,53.1914401007916,61.9625854788752,72.4571789669583,87.9431942432836,72.8063751206251,55.2770904822502,67.3179165203166,87.0833620275416,58.6745552220668,54.9274253301166,59.1011271221584,80.4409684639582,61.3004867812668,57.4661582822916,58.7370483075249,69.8702575952498,90.1247544959583,57.1036351514167,70.1499496103752,51.2968886045416,61.8696385131248,75.6945316704917,73.7283842336669,71.5349256235582,30.6928071224583,66.8627759892502,69.1301943504168,64.3515759899583,66.4849450808332,67.1425076155,50.741304477875,71.6005808914002,71.4791858054166,80.0536336337084,92.5997091419333,72.5451692695915,67.7001751676666,52.3948292254583,75.5959346364002,73.2516404546282,59.5381008300001,38.45896489075,83.56408561445,77.6093015724169,59.4719035055,55.0734903485834,76.4948341122248,65.1097011403167,55.7495054016751,63.0834608382918,53.3211941783749,81.8871192609169,66.7368009157418,84.7151749205835,71.2053264147416,69.3832404164167,93.2696758308083,53.6013782040667,92.830325638825,72.8877418217251,62.6470782230583,68.0037938185301,71.0611363873335,82.4936161514999,59.5805325874585,54.236696416875,66.6552199401084,84.9042141989084,57.6619323829385,70.4926997106917,57.8578079579084,65.7572714207919,60.0674740280801,86.0870184929414,76.2293899854503,79.3236359619163,75.3870855650834,56.2127205938335,82.5279485029168,84.1878158091668,92.3524128230287,69.395720475575,67.0170119092167
45.7191332748974,42.4969287172113,69.9335269718284,72.5876353938976,61.5493756601632,62.5504731498938,60.2881821831136,69.5044999645587,53.6347204973843,89.692778151486,20.116011658145,49.6871083832533,43.5549195677909,66.6818101695685,91.4023935442819,49.5341564972319,80.2544478875231,1e+08,55.549113172416,70.7927972787483,63.4133892038044,64.9736649807828,64.9955264308483,50.5902776396932,64.1452024276257,48.8306466686708,80.5299477485239,73.7991213105437,71.8724503462521,31.6042615252067,51.0513712977591,49.2798314221066,36.4125941744983,41.6324391745694,42.1987245477795,63.8180494191648,70.6878683207383,46.4299152832508,74.4623644586341,57.8302433287199,66.36451260341,51.8275725872366,51.05452289042,53.0389088480475,36.2315535882958,32.7748138249033,35.6095122958067,50.3207050920526,55.1258866266787,45.1834213664246,30.7622712115066,45.6537475307086,46.5018736706923,62.0350617911314,41.2732423902037,55.1242266448825,24.754824276205,46.610077768347,63.9246658375033,42.3765933043687,59.5835107235591,47.6691019656631,40.9115381409836,33.23063703957,35.1070489044112,49.6933891235766,40.7175560747551,55.5922295754971,40.0588727507482,44.5919266121038,52.9780250911787,42.0627961748054,53.1692348810151,83.4458844002803,29.29984415599,48.9591255595687,40.6318017111292,68.7474150601487,44.8890156721854,50.2162272043846,50.7209266022933,33.617026292375,39.1908962605709,30.5222676273541,42.1515030113704,62.608911810908,30.2395705272782,59.9720925382219,59.4534449654511,67.633085101129,42.0342452789575,48.9010621205775,52.0435362158315,58.2908059579572,44.267413777682,32.9097020535116,72.4989219549258,53.1692576373822,43.0401567194941,30.809234531917,41.7188693583895,43.8529109720058,60.4156781672758,44.4970015819534,68.2191471974691,45.4996808806892,53.4140259975837,41.8234156097505,39.4920259251667,65.1056507113975,47.7801564430267,50.4238902964604,64.7398968265475,65.280032540165,90.1133679872398,57.5194630954774,33.6514404723196,43.9094221843562,36.0478227765467,40.2196532067754,50.8415369945842,40.5541149109603,39.5659617757175,44.2958532413754,59.6810774844134,46.8304652246251,55.2494312169088,54.1207859859217,38.7872437529963,43.9112743891296,41.176605279965,40.5514623680196,63.2163732376368,47.1543835526783,52.0450078746183,53.8529167129383,39.9416889952176,41.0916038187241,51.8358184185996,61.9324504409313,43.1313157523328,55.7834294366207,42.7980775515958,42.8108191808121,42.2108210219926,43.328355773173,47.7907321184867,51.0665123502199,47.1846487426015,42.4043625499042,45.8759816755321,48.2862436087205,52.7963422114646,58.5183026396958,56.9252522575379,46.588806264,38.3962389683042,63.7455035840629,59.5274473686149,63.7725205014667,45.2571917698601,43.6351090576117,39.9614935955467,47.6673635435867,57.2703127247671,52.9570536940471,41.8947611897934,46.4924714429787,60.9193859356988,47.0313560333196,53.3053550618321,44.3681142138866,41.558428639003,52.4732986715168,38.2392523145103,53.5523848493324,40.05936084555,53.7486540675725,43.9147726517596,45.5090795523892,43.7511485665878,50.6739072914612,49.4940474046901,45.9783651471363,67.0215374587466,55.1484652887787,40.917151436638,55.4936931101725,44.5890246940205,40.0310242129059,49.4015215694872,48.0581235937233,64.3661641693729,58.1232060293712,55.4974583314467,43.4911304118595,47.2915039779875,60.9847706131045,38.0762592192696,52.2939040158924
28.5083935003333,22.4379772695625,40.6574243994999,44.2889842628124,41.0564754277291,38.5973278675624,60.5562567448959,33.8144955619166,91.038179551029,62.7742646208122,43.2864101553297,15.6433498915625,41.6984910813124,82.04425162225,61.9614927736249,50.7270134135833,67.1277451970835,55.549113172416,1e+08,71.0305151482231,45.1217523923542,51.43770847525,72.6300821752186,22.5316147235,54.1009999523125,59.3422035723026,69.0477936901249,41.6981345204166,32.6484804717291,65.0377742738959,42.7961893667883,54.0012885667395,58.9523361359166,20.9789522361785,37.29517612775,63.3965680694814,46.1049606101999,28.39217491681,78.5082507346538,74.7284509050915,83.973376140695,55.6261388844167,65.4889792165133,43.1133632464582,25.6162436637084,54.3368357151666,50.7258903335999,33.3947504888437,45.4910063177626,31.7127542153124,49.6872537365834,45.8751183100833,64.4233112240069,64.8869458338281,44.6877271323168,68.5635635598749,35.3660437147667,59.443892257875,40.9368694716145,44.8996662574916,49.0325639426877,31.2744972746665,23.0925753197291,56.8466889665834,60.2358372278334,53.6011962459446,46.7103458989232,66.4534932310624,62.4102276049583,44.2514818210208,43.9474455661094,39.2935218853499,68.2176284677666,48.1880521408751,43.4150418865,28.6960371241117,25.2517149394999,54.88636052775,48.6364520273572,64.2602775956791,43.2806472877499,56.8966446353099,34.3020588326666,44.5804001080624,31.4370132784376,76.655512933527,52.8323280050415,64.6787544577708,18.3658611963542,36.4601993954166,59.3355299533082,71.19340457235,54.477778815375,62.6613206720715,25.4840692158916,59.2538193031667,52.9104497420624,35.4082764938333,30.7967483506167,54.1757896021436,53.681601319,46.9277342532249,28.5262903408374,40.5669874016875,35.096310126375,48.78311582005,24.5871277718751,40.8060036669376,49.4051620311875,30.0145774418125,57.4156354651875,40.1504582726125,78.2574849375025,28.16534680525,34.9252545089875,27.069345143875,42.7641296403249,31.053547780125,37.9793342465,52.9959008828125,61.5342360734501,51.072743201,43.3682435472501,46.84850144065,68.0018510728125,53.722365482025,26.5846175136375,34.2942338417,56.938875875625,44.9918401078999,41.02650595025,46.4557157438375,30.9477265212499,50.9610847539376,33.463743554125,38.8720293185,35.8326834713125,35.8742148296875,58.3542456666375,36.21784255175,47.6602803220374,40.4762584109376,41.5993127874375,47.5697099444375,50.2793059381874,45.6092655515625,51.355702969625,28.1879013148125,47.978439411275,51.0656533105001,50.9734512303126,79.3717823031501,36.1815280861125,29.075963948625,53.9969156561249,49.7689207688375,47.6477415277074,27.6766375745624,55.9857174432499,33.7026640012,49.7644090001875,52.0174791392501,56.4870426470001,39.2465641618375,27.964391432975,28.0147168636125,46.4982233403125,36.3972253502501,61.86230464425,46.6446200287,54.497623336375,49.601751849175,46.4836246841875,63.7961148136625,38.2112259659624,45.9381304349875,41.5541745742876,35.6555845841,53.859740143155,52.6406995574375,51.8416067196874,31.44372183975,36.64620814625,51.9925025199001,34.3779623657,34.49615599623,43.8241205666501,28.1651015030751,34.1959482103125,41.11273471783,45.8050708477125,55.7745579656751,37.4872065155,57.955385399875,32.85779198,52.5295419554375,61.65852517975,39.6407468031325,50.7975054922625,44.821767385675
59.6282516998237,61.6723247544948,46.9694676068163,55.5267400495746,35.7102143748551,54.3827100690692,55.4378043672603,55.5276275581038,61.0496815161678,65.1325181129329,62.2467249438859,62.3718700594941,70.3128040266449,26.7374899675285,44.8995303572732,42.4328643463116,112.744575714433,70.7927972787483,71.0305151482231,1e+08,61.7334942122408,69.1010180506432,57.3872049017077,64.0379502690058,58.8011753853821,61.5514627287882,40.3230860719677,61.0219172331935,87.7450870249573,56.4847726713256,53.5340058390566,79.0535851360465,57.312993044288,64.9723612706312,46.8721586920874,45.7344471419772,63.9618453814657,64.8065984473919,79.7544771558966,67.3967699729232,54.1200793266235,61.8683862438699,70.1937904362347,63.8552049159073,69.9239266198583,61.2954270899217,52.8318079829912,60.8477000087511,38.4834598424665,62.9667012440187,49.7711376871196,44.7962631128501,59.4737878019656,54.6390789723397,45.5314720599658,63.0928755484464,66.9041246898195,46.4912865802881,58.9363955662092,45.8936925000056,50.0663688650361,55.2923898070108,56.5089647092541,64.7863175388921,56.6054335630558,32.6561947805453,49.9939523888094,37.0209571366547,55.5349042775797,46.5826442566666,40.0850092413749,47.927033216255,68.114073671738,39.3382208413705,53.7010211303383,66.4570606100912,63.4124342699831,59.1462075128426,43.4926159210237,41.9401482478881,69.9875076160571,61.8244179801812,49.3582004275893,63.144749569734,54.6502026184622,65.6126811920009,62.1692692679545,63.2969668559295,58.286935669941,65.421797839202,62.1194641369025,56.3868578243535,54.2873896625054,45.8467484413999,66.0381470954479,58.477137953338,43.7085655504202,59.3445884281597,64.8658451638603,82.8360345040193,50.5050138845428,40.9735881392036,50.8803098990205,45.0533434965036,50.2186245705929,45.9592271184804,46.3528634055438,42.8909172522437,38.0076757441356,42.3486299821223,44.1091609704456,59.202793511552,97.5803151891828,49.0930584599787,37.5352749549285,48.2627258915527,44.7590019137179,47.3107498392455,40.6878753878732,44.1634822573892,35.8969794686384,45.3562717708562,43.4605618537778,51.9689160477249,59.056489167234,63.5007106513929,47.3070638213304,50.4264741103258,36.7165324532322,47.7566990314448,47.6199477418626,49.9369188904715,48.9158013453367,43.789022276966,50.5855347227313,36.3995054114554,39.7366706359322,41.4660177364348,35.6330746595126,41.032600501958,48.5092005385028,68.283865274526,35.0006990965295,43.0089392590536,40.4227795277411,43.1398273342428,48.3878063948098,45.7110631289331,38.891055330265,48.1975682153278,49.2024202696421,37.4188185209849,54.5090211167098,39.2953792345295,61.6507052844447,41.9630109828572,47.4693886899807,45.8464209000242,75.8398704468758,41.1420001074412,42.9698290717428,48.3864444459222,54.3907586980867,42.3692465297232,49.1437314111062,46.120208908409,48.2157666820456,47.9506851901963,57.3088382002831,38.2294433776376,49.1051598238571,41.4174709512974,41.1155916674946,33.7438200829134,46.2231518761698,35.0704666695732,41.9220908711857,44.9514503473089,45.6854984537265,48.9793220886832,46.8231589076187,44.3163323835955,58.1154576867759,49.0839568784073,35.7930172781501,45.0925746963522,34.4036800772563,46.3740322320777,45.5980166508124,43.6671371980228,40.5987407354652,41.2745692748902,37.668436904416,56.1512535797831,48.1175806797053,36.8108657196946,49.7403165380615,35.2953951150075,38.7926255320403,44.5444931101865
37.7071975222999,48.1200730570499,39.3292308470247,45.9078727656583,36.9879164607167,56.7056263799916,37.1675325565623,35.8409261152666,100.08585140395,47.8284900186915,42.4077740086984,50.5617494168,38.9444825373999,69.9654762066669,58.8989036858163,39.601357213429,88.2164088776789,63.4133892038044,45.1217523923542,61.7334942122408,1e+08,64.6882312402416,68.2390226200518,51.1097163833935,42.6035493345666,80.8848293071751,60.9744178812915,56.8576634212331,45.4515807968167,58.4403719005812,35.0862061130949,57.4502510122729,56.9856064240749,31.0988822919071,50.1533437368876,60.3184312032853,62.1575592624584,56.8360045791116,37.146460733325,80.6689123134251,82.58819776271,60.8275320221876,67.02936039044,24.1389003529666,39.3845033043001,56.7786322889499,49.1111921079145,25.5481595207063,45.1054743430498,31.9453742513741,43.9043125668667,45.4560295461667,58.6546984294375,63.7177280281853,43.0016851992342,69.1081063471125,43.4073537625198,57.153617244825,50.6467565223998,44.455778565819,49.6063506294499,69.8209741652834,25.4760669188624,60.6513442752,65.8947230937833,52.5890536722463,48.774720240325,50.2959256062749,59.9757140773248,37.5775215136751,44.6989647730342,37.20059375907,69.453280951125,59.4412508380751,37.3710512149188,36.57193000293,34.4486460524249,49.6816800566666,47.7885064567801,61.2963085101872,46.9832100750667,56.404043556905,40.025996739175,53.435888334425,26.9919642349708,77.4770738448639,53.3811776721583,71.0558201602376,42.4259322534584,50.7318796454168,50.832047352104,69.7297022420625,54.8042113191666,53.5899461887025,32.8939749635001,51.1547726889665,53.1215289641747,49.7598778114666,35.1331052250082,77.2686735039396,65.033410205679,52.8053828621626,37.025878801,52.8118023003417,46.2936724923332,55.4948492314044,39.7495485199083,47.8637906257624,58.0522098251498,51.2036930387625,65.6396722005291,32.2776405931875,67.9720193406441,47.3863564186834,62.5789860020248,50.5234818549999,56.7057054772334,40.1046265798292,42.5806772434875,52.6875918614333,53.2109360482625,61.279536487375,46.2129685268375,59.8232167742834,61.842973222821,42.3575243819418,52.3889873189499,42.7329444811249,65.2120927365834,57.6897200058251,49.1523699225873,58.7920783931708,56.5731310210415,62.2209228543708,32.4268542520708,55.0773582427625,49.8583344509623,47.8387046606543,56.9976249841376,52.9918094826668,62.7386812668291,34.9473763517291,49.5540682108291,59.4854576842916,57.3829755543835,55.9840849670585,62.9924912201044,42.9347229768958,54.2210656518501,50.6105419720876,64.4868994393832,56.4327408888082,61.6589503084457,49.0011535951708,38.7637164396917,61.2500348856124,63.2616548747451,52.3645065720209,35.6548746836625,55.4592403267126,43.7895533552665,62.0764917802625,60.2049669085502,47.6042218297709,57.5687265377,50.7379204967124,60.9707968476792,39.9412220247126,80.9350648161123,57.1549876396459,69.5698866711334,58.6325420937875,56.9612731321041,67.8352125177917,50.9185365327832,56.4513067884124,55.8265351980958,53.859248943275,59.9583727464301,64.7296989431167,64.0012823593374,45.8620386120918,31.9960025175084,59.596009197425,53.7538739148373,48.439929289641,58.111763225775,46.7982165647584,50.9605729886249,55.08333272133,56.9855872524293,47.2837433185668,53.3331852440792,70.6460843196959,55.7773775207834,59.8063452377042,68.5559593982249,58.2299526967949,54.5774430259499,59.0452292826626
44.6320918448958,65.8349976207707,51.4325210435375,25.0783770147917,50.2086338163332,29.9675310475416,56.1760416837499,31.8851890262999,58.7142753541417,50.61096786625,73.1756700533173,47.9604327056458,73.1383909300456,78.068781574146,64.3265052932,71.2065512806666,73.9576339992499,64.9736649807828,51.43770847525,69.1010180506432,64.6882312402416,1e+08,53.8216646088542,44.08355325,33.2058791243875,77.8281485810091,78.1278430697706,46.1195177034375,50.7436603070626,75.6986597890937,49.7477009410116,69.533917586927,64.49546890575,51.1000660898959,54.4653766594166,51.5141416966332,61.3013713542562,63.4673872084799,73.7283504414289,55.6869522931968,59.8945139968357,41.4689966128334,52.7099518362966,67.6566254502914,53.1312983366874,38.4805581373958,58.0971613892229,67.5772430317602,68.5612693103459,60.7614599035915,61.3323946530208,56.9455514703833,35.5208834288993,46.0284737180583,62.2099243881341,46.003919023125,67.1164430168759,60.6810764583124,42.4478495133645,62.1729890107817,54.5997711984374,38.2779115921666,55.6283107808125,62.9152873249791,62.7370285331145,71.226988583253,65.7965460968172,52.1406093925458,64.8010612117915,61.6441374611666,68.5829490949271,58.0926987984783,53.7396140246,52.6664198588958,55.2743751465521,59.1504567143483,49.473048631979,76.0465193423334,63.7926733969851,63.9760179762206,37.3336715146875,60.5303368790433,57.5688857146666,47.4247409593208,51.0120143319375,58.6109573081305,45.7689612344167,55.0773676276874,45.5395900107292,62.2464495483333,63.1137083951832,56.6342657593666,39.0100984652083,67.8045527676102,59.7488635098707,49.7661335939667,34.9581090318249,38.1757812669167,58.2466635426957,52.3265587353833,50.0450758936458,44.6324317455457,31.64990971465,51.0145538872501,51.8612097555416,40.3928368963875,29.1033158734792,47.2102333469166,42.0089384513334,45.3767505716458,47.690557657625,44.6071760997584,75.6355764372184,38.8109895706042,42.8268682888583,49.42011133325,47.4029971479042,43.2277765769791,43.1764417813542,46.82911832375,61.7131733571751,46.6386309160625,35.1615546933125,44.1500827476416,59.0800820559583,52.6197571959209,40.756231282325,43.829231488075,37.8439488476875,44.4886328795375,45.8003868192292,41.4197110494125,48.9224759335208,51.6144390652917,45.2629486392709,40.1662272743333,36.2209007300208,45.8218641062291,63.4625350621126,49.3503783059584,50.714236683025,43.9692515380417,49.6326965541876,45.5808294877292,43.9560191053958,45.8001379734168,43.0111407683126,28.5054268598125,49.4800457251,49.7180594343333,44.9108653076041,58.6929426361209,36.0063131872167,43.8751920498958,48.6925164369792,45.3587205731833,50.2655027824967,42.2150574475833,50.7063573618542,49.0918863493459,58.5597659385417,44.1794385236667,41.4035699994166,46.5616292542958,46.8405021992125,37.9651989987583,41.8422392453125,40.2829189993125,51.9355982950001,45.4085022394042,47.8377770211666,39.469807105825,49.2697522600625,48.2998164976208,43.6535252156834,52.0133728806083,45.16247102315,38.1898316763291,46.6994512974492,44.9896349344167,45.5917370154375,38.1541922608334,44.9122718384791,49.8874181255583,44.3120227508875,41.7649746870841,39.0602901263292,33.370188170325,49.0767976822917,39.8847950875033,46.0296070870167,58.9849145032166,47.3073395407083,50.0590783290209,27.8224291214375,44.5315594803334,48.5015035106458,48.1166908407158,49.3148906602168,43.9376698432
62.0365419042498,58.6144657012499,61.016611116177,50.6182539515834,54.8324056934686,56.2156325801979,37.5315172478228,65.7210257776314,43.6656954624916,60.9068939426354,52.7792567289517,53.0258761070206,67.1356808890666,66.2958220809478,58.2819603407936,36.5206661936144,71.2136928763334,64.9955264308483,72.6300821752186,57.3872049017077,68.2390226200518,53.8216646088542,1e+08,58.7514678676458,39.6936729825623,51.0427361679067,62.5434860589478,55.1597270254271,79.9028228783333,36.6428579522083,53.7022519363015,55.904855685854,40.4731149550832,67.9423117344656,51.6918777465832,70.3068651611132,57.7535604313773,49.4646427610149,48.1536812955376,37.0934436255916,33.9372193758433,56.3225978730729,39.48685472648,63.5557880117501,66.4635411524894,51.5708335381667,47.2669515587167,61.3613754944583,42.7793077965479,67.8867139737108,48.8824506050207,37.5534435650082,41.1378713823237,47.298594555878,43.4575039028047,30.1372490504083,59.9588817042966,53.1203484651978,49.921438424979,42.889382024265,37.7707902315417,52.9212310480415,55.2981577364165,49.2857924387083,40.1026751024582,46.8747163248193,55.8906651774216,56.3515076983979,36.9420206301249,45.001778202,44.1859497631563,46.7074898942866,36.1122868553915,52.3070302414895,53.7588286237916,71.9781280445906,66.4337399703229,72.5929265694475,47.7432094030194,51.329815589398,38.1870916027708,43.2531968728267,56.8713419148231,59.3336348402374,48.5933737326666,33.3528027757613,53.6415157714167,53.7230031899895,63.1119416033436,76.9561931154581,55.6291679412999,28.7789027869959,46.4908626951874,66.9429450080905,66.5531531629249,50.9862114272583,34.1220211713083,57.9140823231665,70.5170486528833,56.6742389964563,43.8785098555833,44.1466332021522,42.7491450206605,47.9812716865312,58.0566028711354,44.9851371887793,41.2412421403438,46.7622097588125,39.2031856816147,56.4751748637708,44.2869965889479,58.8064911597708,57.7820469936191,57.6914336545104,69.3705523837999,54.7165479869376,45.3049597374501,51.5909773065105,41.0833390902186,50.0842639138332,48.5087616741062,43.316922247125,43.3506904418438,45.1545239873583,60.9128675357396,54.86098838565,46.9068657575791,52.8349505215792,54.8079789830521,45.5743933518188,54.8743041854376,41.6285512027438,59.8378620502188,49.6273752921459,53.523104733698,39.095799255802,43.9027104488647,48.4148043030834,35.797926084325,57.1538141042605,50.1117353550897,60.7106186077605,40.2022224269062,45.4412353525625,42.0987117437291,47.8464392508229,49.5826979256458,51.9698376806457,48.0427185635459,42.8009034078959,48.5023872091667,50.1675548966313,63.5662643042168,55.2131187285103,58.4832005960313,45.5485485132438,43.1711299384888,59.3932632436353,57.6474754634897,58.2610808076687,46.3288965190521,40.4271391822188,42.729408762427,44.6812580964854,58.9364784311208,44.3056730229042,40.6396475897812,45.2240633298437,56.0029053124999,50.7939161825126,51.5348946975313,46.8546635699082,42.1102213589168,51.2132468443708,44.7934993666396,43.9239473230814,39.6505812110167,43.0281937153208,48.5396923530611,47.4332379631459,44.8812411339792,55.458758763677,50.1603675326041,51.423664411577,55.8064337112457,47.5769840559337,53.9439732981396,48.9535137817563,51.5727392955834,48.0432544262363,48.4331448188479,40.6107430498833,55.553902840948,52.1575686095938,47.4446839477084,50.4195058744271,44.5407447941459,52.640319517268,41.6743108106895,46.4854943584563
18.5845155496354,34.4013861919062,37.3901503261584,31.611521721875,36.7023844964685,30.7710774486249,61.8338414675519,27.6442016886666,67.4154955835708,62.9861231287187,43.8886795862454,14.2607658005208,31.1531382781665,70.9796466792499,67.1847145469834,49.266765117052,74.7007331194687,50.5902776396932,22.5316147235,64.0379502690058,51.1097163833935,44.08355325,58.7514678676458,1e+08,45.1550760400748,53.2599414637953,62.8104917371251,41.4040061237395,40.3934033864375,49.8791647541562,27.2971647669854,60.66736563625,47.645747011927,26.4121587219523,46.239127234802,50.1671367451373,37.55468827715,20.6114819924867,77.3986639446895,57.3195130560521,74.2571508855054,32.4958844868021,54.7849156418486,41.1615056277604,29.8160397568437,39.4904599956666,41.4414292524687,35.3691914609063,43.2407525507895,28.6532553202616,40.3369624224686,38.5246567002686,50.8874500994478,48.3498842661999,37.635415454682,52.4483634196395,41.5464937939233,54.0005087581664,39.2927354372916,39.274567941917,40.9470386506145,30.470335558052,29.9564362560938,43.7692451498853,46.7127106000522,53.4601688383967,38.9260910319752,58.6422284597499,51.4274687128438,33.8082299965104,40.9465089110207,35.3164709387221,57.446726507777,46.3141484096769,39.5437526898021,23.5106845513558,24.9555831469687,50.8993550218438,44.0150006189716,58.5563515403459,33.3222751025832,44.4367719273971,36.8425540020313,43.9795740102813,30.5570692821771,66.41722763867,43.3578512709271,58.7034439497187,21.5962794805624,32.49220373975,58.1743200723603,60.0109409251727,36.527481013177,56.4240187190712,24.4549292734417,40.1523852218436,41.3401846689521,20.5369665367187,27.9412482037313,62.6689438224458,47.9568679292187,38.2314005177458,29.558287913275,38.3149770895729,41.3970132311563,38.9481195091124,26.067884271052,38.2112490927604,41.2374034973229,31.1438435433125,42.1519231036979,42.3192460490396,77.4308716573461,29.8148145575625,39.2221599222271,29.7150185426667,38.0384966444188,28.1601893403438,31.4142399851458,45.4853277401979,56.9231576586479,41.5459110268438,37.1833807784375,38.3010940455667,62.2169714052708,47.1024915963375,27.7945749314604,32.4317416294812,51.6849216861458,41.2084391826187,36.6750624610104,37.0522396541813,32.8031424611042,50.8676603288333,37.9438414921562,34.7900243235416,33.7256977919896,30.5349839927083,53.0934517769812,35.7626350590312,44.0133889214542,41.4286395390521,37.8600959094167,40.0206801885209,40.7932140979583,37.2130019831458,43.0354081313021,27.2490225476354,39.4424056316292,47.0169968229375,43.8859481168854,67.7257924307334,36.3842972465084,29.4977618628749,53.3963940125938,41.5827071446187,42.1519787035721,31.4211138065833,55.711316191177,33.5463306047313,49.0260997060521,46.1196296372292,45.9669118067292,42.1081217691396,32.8828840533083,29.6099839004563,39.7920027800104,30.8705661284375,52.0630109493125,41.8483528930437,47.1750563856458,38.1274678244438,40.8409612488437,53.2020601404854,35.2052688080666,39.7518404733833,34.8459748258084,35.1777923870063,41.0478757109779,45.6561077628021,42.2318653173958,29.9736019184583,35.3009891640625,44.7681542819417,35.2855127535437,31.3082925660113,42.0150406884,33.5765927370437,32.6713474877708,36.5495959518613,39.7806067472542,54.4017847623,34.8532466077292,46.8832489230001,35.5829222609479,43.4844197850729,48.7925312836667,35.4564164265909,41.8664889387,40.37796195055
32.1812756036583,57.3415536025999,42.1394949869916,18.0249862026167,33.8967379685458,33.6393113942,28.1501691496542,32.0797804309417,89.1085563504374,36.205177916275,47.6732015999671,48.6097429391292,49.0116120822667,66.6441737719749,46.7975047184,40.4181826607457,80.7278582904123,64.1452024276257,54.1009999523125,58.8011753853821,42.6035493345666,33.2058791243875,39.6936729825623,45.1550760400748,1e+08,83.1587460064741,58.9036821410999,34.129728306375,59.7136436685501,59.8766951931353,28.1384356101484,58.5853282622063,50.2832066074917,41.0466732126535,49.1911698171875,52.3706824036595,52.7666751267063,51.8857849759949,43.8105096762332,55.1465772197634,50.55144923699,58.7769197056436,45.4646194366183,50.7098879242998,43.8741766366001,33.6371867523916,46.0229328098646,46.7621725210726,41.7801716387915,45.3756098721508,45.7877418528625,41.708198752125,30.756115874525,55.9364110425218,45.2157298339159,35.19705103015,51.6690884188264,44.7330010971083,31.519473780127,45.2910506852557,30.5535384315415,58.928980952575,33.5770039586541,56.2457412578208,57.7361983839145,47.6739678474773,43.2117844917368,35.9733986125416,51.0615044300333,40.3369440604082,41.5138752708999,40.8387849182799,45.6954251004416,43.202975877325,39.6120147593937,46.5002156956493,38.2177260650582,58.021450594475,41.6123202034772,47.9409586826415,19.137064123575,47.5993448261449,46.5084179672918,44.9618254108375,29.8045785936791,47.1720361684267,39.802383042025,40.6925882805666,46.1896623973042,56.5500017344501,59.9138184348876,49.0268131299,49.8451717610124,52.8172947094394,45.1663715648169,42.6518043430083,23.9360216720417,39.7743362067416,43.0075270115916,52.86631168395,49.992996702525,42.767781982875,28.3896935127125,41.7483852871,42.4676290420876,40.9523346739875,26.2992816851125,38.3910117496624,39.7453281786249,34.4837674202375,50.9939471885125,44.1974136918625,75.2570266362275,37.1938912170624,34.6074261946126,38.69627055705,45.1118626211,35.9665743714375,34.00728122575,47.2585817871375,56.6069039295625,50.3419641984125,34.6714615432374,40.80090456125,61.3799294783875,54.8695878332875,34.8441235030375,30.247614405,51.5541012941125,43.7574559112251,41.13683639815,43.3532216413624,38.8064153638375,52.1337291751875,40.3449887178624,31.8678968400875,38.375926507375,36.5189176309124,50.8243899304376,37.1132826444625,51.2930228944625,44.1064027397625,37.5996385725126,46.2097641675625,44.8061360145375,43.2496051513625,48.1927541402875,27.8750541009875,41.5809291469501,50.9328175798001,46.0827735235875,58.1576949232875,42.3103020546,35.5856787211,48.2394229213499,44.9310734474124,48.27054400477,36.8042864969751,52.9665330598374,40.1344777005251,49.82240435055,47.5149152382375,43.7247383394,35.5046634538,43.1300072696625,31.7820297118126,43.6575113375124,29.2765535564625,55.6580186359375,45.60839420415,52.6469364716375,45.006169139975,43.6074227169625,47.0987595684625,42.7323337020374,40.63035826945,42.3540093303125,33.2345532313249,43.6046617540175,47.6289654114251,46.30014437985,34.9410219071625,38.270904283925,48.9227001667375,34.9732573234875,36.2699308047575,41.3919392688751,34.8053905861374,41.271322626425,41.779678496455,39.6527716885,47.6328713495,33.6962539783751,50.0482343736375,38.9328658588375,45.8747004025249,48.6956840308125,36.8118702884076,43.905000370925,37.4242336715251
72.8864150923558,56.0479016598268,61.6502333461865,81.386992942918,72.4141291077485,77.1510762864083,62.8803441840607,64.1857487400848,25.3209378300916,83.6207882162989,55.7766391837079,54.7019016680525,66.3374721836542,62.3046826546624,70.8243202924322,55.6203036383224,79.3364521925332,48.8306466686708,59.3422035723026,61.5514627287882,80.8848293071751,77.8281485810091,51.0427361679067,53.2599414637953,83.1587460064741,1e+08,64.2577828689475,60.0402826008709,75.2286982128644,45.4027713169366,63.8542328016625,55.2978274326867,55.9160467745309,82.1630490190908,61.0199770137817,66.2112412443133,62.328802427414,47.707125744875,84.1338805347033,51.8278504098966,59.3479931196199,43.2413439695467,61.3300172707766,70.7290770538739,75.0697435995074,67.0660650044916,57.2851887626679,57.2373800945561,59.645189197779,74.9033590633888,57.4548727271616,58.1430027560167,71.7381434398967,49.17924206984,56.1688401668833,61.112094854605,57.4317115288003,71.653120808201,56.6794578427412,56.4843473089083,71.1122062407307,48.4297083911733,71.2718004181716,53.38531962713,50.4694442820766,64.7663403610903,59.9355491164462,78.1500083994791,56.8267515510517,55.3443666389182,59.4050830738374,60.9575757444834,60.3966539005982,77.2751162757008,63.1466717596063,73.8454332308992,76.808669760674,68.9953291448224,61.3934236880151,71.2491878289382,75.1387326062249,56.9710605098102,65.8743449710314,65.3087093289775,69.7894602145016,62.0343506719553,64.8619937160123,79.2562076977424,45.8301249192725,65.7265488292784,52.3661849573823,57.8123538118275,49.6002842186149,65.6666365961977,75.7977901632474,58.7243147699208,67.4030274832973,61.6462363243532,78.1239683187799,68.7016195915279,48.0644111362151,53.47588039145,58.6605694793368,53.6876051412941,54.7374537627441,56.2795507230909,53.0729756925474,52.6341961107733,42.24369774062,67.1260046670126,41.3541686719892,56.8251807112751,57.1078698429575,58.9246851560002,77.4588791685519,55.6598749161941,44.1642405205692,54.3506328334957,45.1360150162984,42.8880973056242,43.6048924468249,41.8942872821525,47.4187156033384,50.8526812784792,59.3795899374141,48.7035738911433,59.4586477168432,62.3924933690216,47.1678182864218,49.3522013750226,53.0189189012691,50.36442357557,62.7870613917085,49.5000591677927,56.5059722959891,58.0872524703826,44.6704351778342,51.2950378973466,39.5131450119425,63.9007587550208,54.5839546226026,47.6049767803826,48.3285427447382,44.8098099672968,49.7023274107733,53.7476882216373,58.1335433361556,58.3754175239118,53.7944128707468,33.5459300229592,50.4925030211334,42.6822860668393,69.2993700889833,59.2280522618709,60.5600793299526,52.1675167256742,47.7405304134767,58.1120370907933,67.8919382908049,66.5413784763783,44.4446530860341,48.5286594307874,42.0792282169483,45.9835069529849,59.0867711731918,57.4743647034199,49.6420491542634,56.0397782140207,62.1853183786424,54.5994019259776,52.7154995228365,50.4932040416357,47.4679119120315,47.3337937453566,45.2003444835966,47.9782382602043,44.294752338686,58.6360711595,54.0447868362034,50.5181820531099,48.5150295449259,63.2963078162833,57.2790900559117,58.9171175932449,73.7751689857875,58.6012174165658,55.9882035540958,57.6085429769826,51.3127292285168,49.8337751513425,55.1614643924665,36.9476361302558,67.5866144642676,59.0597836802825,61.0253770719708,48.912270978544,43.1191361088959,62.304721630875,43.4042336699802,61.6714142273016
56.6056900144582,54.1900025512499,40.9677726144417,60.0530078888335,43.1181004978123,52.92644904575,54.4303590527917,54.9096971834917,73.2351057798124,67.8373772669376,62.2913006400445,59.980048134729,54.1039971703417,28.088969090875,64.0269099224249,37.0342349999998,143.946294268374,80.5299477485239,69.0477936901249,40.3230860719677,60.9744178812915,78.1278430697706,62.5434860589478,62.8104917371251,58.9036821410999,64.2577828689475,1e+08,66.6513705684584,92.9639201254584,53.415558590302,41.0885699775315,77.9724009777811,54.4833389527915,64.0754710258747,57.5599345719375,37.8916609838094,38.2634107595248,54.7441228844131,81.3542392320037,64.4994339608636,58.3130511550701,54.7040767002605,68.1758910873381,61.2060525782917,62.2090825249999,64.8060318377916,47.356713810552,51.1201212424481,31.4508108743416,58.4106115925959,47.9680471101873,42.4265119051751,61.6552207107477,42.0057079925217,38.4988230918406,61.7331326808498,72.2417136408612,54.5876669337082,56.2949306299269,38.8610435318808,46.3331234017916,67.4445803642498,53.1426809877288,63.5096407688959,54.7365353808646,38.9586809205345,41.9356744266226,49.8270666907417,51.6506972005833,39.1425090952084,32.52132906325,42.8038475601301,65.7921828036418,52.5177662748747,53.6744131601563,57.6842777253349,56.2160149084582,18.8231214408749,40.0505306539345,51.8574629672418,71.0124079263749,60.6083937330849,45.0274388112918,64.4107270564375,51.2839188969374,61.6951418152472,63.1614325602918,67.9030562304999,56.5078295535622,33.0370184470001,66.9702849580125,52.4693184475999,49.4228685193124,16.3793406993393,63.1877549773583,58.3752665192084,41.4381768034417,60.0889765942918,56.5362951604167,97.0788457586127,46.629951446125,42.4242729134748,49.2563898458499,38.8000813916248,57.6328287317499,43.2767205018002,43.4544631594999,35.7472965833749,40.0290030707501,34.2810383,41.002445147375,53.388206742,94.7626886964901,47.111591697125,55.8408193215748,37.97837930875,45.4935607458247,35.779072251,32.84293226025,46.0240714679999,38.83704229495,46.51016647625,39.4917089796251,43.9645450164002,61.5267032726249,56.8840224012751,40.1497086276749,35.1554431489249,52.1143319746251,44.4567186008502,44.0625205911249,48.5126191028999,37.6374914485,45.040454146875,44.516375212125,39.1145821755001,40.9891583649998,35.2613161010001,35.0461363889499,36.6810814725,44.96421069835,65.2692156528748,30.538488540625,40.5365654896248,48.9510100521249,43.3964165337499,47.823092073125,44.9919031058749,37.88529544965,50.16066239575,44.289778365625,47.287810266025,46.05651438005,33.9578111399999,57.5051902235,38.3744137791501,43.8031892626449,49.4088719006249,67.268412117625,33.9536787412,33.306499261375,50.2566754135,55.5845822062498,56.8137233701498,49.5221554211501,50.4117438528001,46.173436066,34.8669376379999,61.3826693903748,44.0835378187002,44.5490779895001,44.4077270462502,39.7924513726249,41.5872803092249,42.5530285044,31.750596772675,38.0551315533502,39.0600828916751,45.6653967667799,49.060936124875,44.4011060574999,36.0512435148749,45.4118534544999,44.9754101225252,41.9380523987999,34.3306702172701,51.8868530840251,42.2995109835501,36.4359727932499,43.7195675434552,31.7427259957749,38.0964353174251,40.2629677992498,55.502094070375,54.1206280966251,39.94421260325,46.8982895162499,38.6771051695698,42.3658556466999,44.3098896926749
38.34688893125,44.8146807119165,44.2459640984041,47.0064887410417,59.4995714740623,52.814382712125,42.3103770416666,36.384138414,102.035647467646,50.4999285200209,65.8573028765361,36.5057413803541,68.9287031422001,77.9722578324167,37.1116022605333,56.7471953068749,62.2136722265416,73.7991213105437,41.6981345204166,61.0219172331935,56.8576634212331,46.1195177034375,55.1597270254271,41.4040061237395,34.129728306375,60.0402826008709,66.6513705684584,1e+08,47.11110633625,71.1793177438854,47.7897722804733,51.6798866056562,65.1809768755,49.6347235203214,53.9950291319791,86.6709266376948,54.4519739213334,48.2608292373664,52.3723504549459,61.3051006072916,60.706825021445,77.9027987575209,65.7097136438434,55.3282601954999,55.4995417061249,53.64145129375,60.0161260170271,42.333567320823,46.9942383989332,59.8119829175084,55.071818067979,46.2308313403166,62.2082270044028,84.2651610853322,51.3621139027856,56.6272856639916,54.6416836970533,69.2756999159165,16.6271919574687,50.4233250593657,41.8068561168749,47.4242932260834,49.2688488431874,70.5465550795832,61.0702010715103,50.9639882780381,66.0758062039738,67.5913380543,63.8536669512916,51.1970986758334,48.4008803655416,52.040170639385,63.8991936986165,45.8871610441666,55.4334138263646,58.6155495466326,54.1530070562498,69.4245384815834,57.9283504295713,66.9391554650209,27.0537561558332,64.50786256542,57.3719332417501,66.503677410146,48.1748464408957,61.4197056832401,64.9947205683751,69.8726429544167,32.7632719907291,69.6539928902082,50.5101731201207,59.3281834309333,76.9913736944791,68.5800744867022,55.3681061397584,65.018960149875,47.7113316510668,45.678826805,59.0315660189499,62.173993459373,65.3708144919166,55.4189447556,32.2137732820167,51.4702476786666,30.804012018,58.1866099500917,25.6385175269167,46.8284243608749,55.6192852594167,43.9582801288333,65.8068707234583,51.036549046725,83.0363290222817,31.0361084921667,33.810091945175,34.91174356075,58.6381438570333,42.4420829093749,53.3051064272917,53.209551033125,64.6236787304917,60.7001044295,52.4089627085417,61.6322171482333,68.9738303302915,50.2770107369416,34.6745829123833,40.9196038634667,59.7223217840834,51.92288708965,54.4982989543334,56.5552868423584,39.6781624795,63.0254013003751,43.616043208875,36.687792604125,50.0792176202917,51.75352949925,63.2573519639917,45.5499015625417,65.7371416058916,42.4037249119583,58.9610485806249,56.7514685354167,63.8166978872916,53.5442404185834,64.6009219289583,28.6989277446667,58.6118425249,48.5409124424584,64.8786158271666,65.9140196571084,45.7653041396166,35.4474464106667,59.7234199766668,62.0258332085251,58.5759923036867,33.767263126375,66.875272548375,46.93976443305,55.20407970575,59.9678357032916,57.2887563669166,34.4572497146082,36.4754305244333,32.5352676218416,65.7197347552083,46.1785713654583,69.9745883012083,59.571931169825,66.6369696244999,60.1764580745917,56.7267886583749,62.9857641232667,48.0937390195666,49.1755507481999,52.1190904263917,37.2666646613166,60.6611504790298,61.6739482064166,62.3433817397917,47.8151346991667,40.3798377894167,63.588734130775,43.399582375425,45.221290917145,57.5899963991917,35.2842600830917,49.1531051841666,56.5163248237467,58.1282662464417,45.8236329548834,41.1581258886667,70.0559668423751,41.2822569744583,59.8041936782501,68.4989336994167,45.2188479875967,59.6446654632834,46.15518962205
33.53640245275,51.7245641412084,64.862219687279,49.2929228706249,60.0848247366461,55.7831770382918,68.8818601309581,38.0047250011999,104.478031526208,71.4692527905626,70.667771580809,33.1935197339166,66.2122770766833,105.940380434334,77.7177928502667,77.70310461125,35.6173245659999,71.8724503462521,32.6484804717291,87.7450870249573,45.4515807968167,50.7436603070626,79.9028228783333,40.3934033864375,59.7136436685501,75.2286982128644,92.9639201254584,47.11110633625,1e+08,74.0598931274792,53.3138473102676,63.2306486932397,86.923486604,34.3999677679761,47.5386256542916,83.7662727915843,63.8807630749583,51.5584120137816,54.6404035984876,88.0097545276029,110.690375780063,63.1608775597188,94.4150124530799,28.3604686790834,40.7527823899166,58.1119369826665,59.9688325255583,49.9568089181771,81.4042026133664,51.109757538935,60.3239252874791,54.9020097199168,77.2614674062595,85.4067875054969,57.5228278043998,90.3914030343581,50.7526658730033,92.3122201302084,41.7764661965834,58.0342890992,65.9098849860831,33.871645365875,42.7045443704374,73.5030356723541,73.268707577844,85.3740599989415,86.4306170539917,82.1174642370585,89.7132373172914,65.7134507519165,81.353192439432,55.6646321565584,96.3359858248917,73.4141491771665,58.9721472505833,47.31306699468,43.0307074725416,83.7338904240207,84.7107789169731,95.9570842661373,40.68510226675,82.9944646215933,50.2864199616249,59.5389230194084,49.9198571095624,104.64213361318,62.45064322425,95.3353086439999,23.890941571625,55.0787648377915,44.7584607606707,96.8233275579333,73.7334699791875,87.6119165031904,42.0238776247834,62.448731210075,60.6971990644333,39.46962015725,47.7459382815585,71.3930678236542,68.1325618653332,54.0674514927668,36.4412205198167,59.7900252575001,47.7273963411665,55.4817419396332,30.2347767656666,54.6545855793332,67.5630141794168,53.0756466804165,74.3920723644166,33.8046121979666,44.7024857298565,37.0936969276667,50.0759576622836,42.4477750795832,51.0703490637,33.6666180324999,46.6889000552499,67.1110916101666,57.1155348593666,66.7021149256667,44.7413794623334,58.7926503962333,80.3475228239168,44.5118700822333,38.1301412342834,36.7922851124499,70.1291520311666,51.7750102170166,46.3349618196667,51.4035010032333,48.0345406464999,67.5306519619999,39.6753357078334,52.4364992836666,41.4496922863334,44.7840147955001,69.0374269902833,55.4564021789167,62.0926126046,20.5648466165,55.2678034815,60.1583150871668,58.5120995938334,55.9924872202501,55.9260177406666,32.3433042261667,63.7615642197334,54.1487834726667,70.3577457825833,79.3741318977332,48.2162813258834,44.2509091338333,42.2778402502501,64.0102464422333,66.8680109809201,43.3217317409167,31.7924488260833,59.3613863615333,54.6577996499999,60.0563767575834,51.1242450464166,57.5203367633166,48.8307559799834,40.3516780105501,54.0903886980834,37.9410731025834,74.9975585980832,58.4642461936166,73.5439332659166,53.5743169865333,61.5475818529166,84.2493569401002,46.2376630244,71.2110559957,61.3970754646001,46.5470699154335,58.9359606081965,62.4629013984167,70.9006734156667,41.0262424190001,35.3022484981666,59.0892239921499,56.9251886125333,43.00243413773,56.5982073829,37.8402053193666,50.8073409069168,50.0661686231632,64.1531143233166,57.2138974404667,56.783137249,66.6146784125834,42.5299549430001,74.8356194999999,74.2584338892501,67.5247482831534,63.1767555155333,53.91462684205
47.9820438177082,42.5024104934167,63.4927392421812,72.6218400061562,57.2796218051771,65.056008885698,44.605800297073,73.4433631113563,42.4210815166437,80.0621269177605,22.4939041183133,39.7858889098333,49.0563383104834,48.109285466177,75.871611193527,27.3639928385729,81.0094964482291,31.6042615252067,65.0377742738959,56.4847726713256,58.4403719005812,75.6986597890937,36.6428579522083,49.8791647541562,59.8766951931353,45.4027713169366,53.415558590302,71.1793177438854,74.0598931274792,1e+08,51.1909387835703,43.1238548098333,16.8706627455417,54.1283493854522,33.9884178268749,61.6687167345894,61.3404278728271,36.8034260593783,65.6101067390272,29.0863747229749,40.4508518514265,39.8114586576145,34.0912801853965,54.9369395286043,51.6332606314167,31.5870848468332,14.1389107519666,47.586677900979,31.9000885498896,45.7079620066707,17.3257452715,22.3140769172667,38.6199211782575,49.5132290504915,18.72964157436,36.0823113765124,33.5247886423216,36.5223451452812,59.8993677345208,19.963943808905,43.4856277689478,42.0476349558854,36.3786312506667,15.3288126258333,10.4447320374166,31.0265080847884,34.8880657611253,43.3527580303563,17.5883065927915,24.1214228990416,33.2182955437084,24.0310152608133,33.7595698233916,62.1175018057811,26.4677896160833,54.380444200105,52.4766520388227,54.1625772430521,28.1770741399718,35.7220029132436,46.9239006394584,18.7913899829516,33.6253194448334,27.2077041624375,31.363867865875,37.2402160753447,25.8378857608749,51.4800849474062,62.3191852302604,68.1239736075729,35.260815669829,23.640314517454,42.0163532825414,51.6876214449895,49.5311092123249,21.3048169390416,53.8864229412812,57.80822072475,51.3197203232334,38.8882659167769,36.5212427835938,40.4748050826397,58.7978948039645,45.3730483011041,65.0652601360208,40.3585995879228,49.4513458081978,44.6967277416667,32.4464490679792,62.4887046926458,35.9914567277916,54.6403807285271,58.4172420389837,73.8424329595833,91.7752965857792,61.0881783818021,33.5224303005187,45.3965924149793,39.8038281818438,43.189191860875,44.0556747193937,33.1587933628542,42.2712651407709,37.9405155403395,56.6252232105521,46.8926080855583,50.8916631112874,58.6128120956209,44.3657058622916,38.7775995648062,43.4065242361771,35.25457839535,67.6716261528854,41.5770246204895,51.138594370948,50.8391058261771,35.61646203625,42.6796751398853,33.0290406426021,62.4801613270937,38.5250402545709,67.3747741255729,37.9551413210104,37.4414994177188,37.5599239149792,41.9991996772917,41.5408324702397,54.1496391239894,43.7344663381312,38.8617387948541,36.7710534310312,41.8293392866624,57.1981534164084,67.1399173127186,54.7740481112396,36.9326910792459,32.4694948863301,65.2858940646562,54.5814676943542,62.5555446654668,39.63648811275,36.9849181894063,38.4316541568334,50.3783644028188,61.7716918825168,55.8828594635335,35.9633231832396,48.5754615497292,47.775795508604,42.8536300287688,41.6583356497084,41.4116843604874,35.7094571959999,41.9911885864437,37.9334749721937,44.3877522923521,33.7201974118478,49.3709495413688,41.172995710074,40.8763607890103,34.2229271618292,55.3299055904375,52.2955857155312,42.339935039277,68.1810481820167,50.6346173408655,43.7416563329188,55.0992488830396,48.7281873879688,41.5660744548991,43.4730280059022,42.2463479689167,63.0941449818647,50.0130068739271,49.9945677556147,39.395645794,35.97683163525,58.3847992859821,35.6595150779355,52.0966555119709
15.4187264535666,39.1461408178283,42.2271453096208,31.7346518481209,29.7574993014467,32.5141727058707,45.9938341648433,27.9794262662391,68.3803099647631,59.1657639792456,35.855909418246,30.2627206301274,28.1302106946432,50.9565126584067,72.9771557250833,32.1991609918649,93.0254063185424,51.0513712977591,42.7961893667883,53.5340058390566,35.0862061130949,49.7477009410116,53.7022519363015,27.2971647669854,28.1384356101484,63.8542328016625,41.0885699775315,47.7897722804733,53.3138473102676,51.1909387835703,1e+08,69.0443106933887,43.9799793214908,30.4542251271514,45.2657735311767,36.8253315866735,32.7061784246578,32.2878987699116,58.549481724414,66.9309956762511,69.4761877672958,36.4523097129854,51.3594635177808,32.4280495966416,27.2901326819549,36.0562123480534,40.646848161677,31.5520063570337,36.8454887481134,29.6246461883633,38.819116197025,39.9840074615874,42.115602819435,38.1233661413668,37.867569014225,43.5188418965949,46.1111281046799,47.5018614751632,41.2845549222686,39.613699793125,32.5711916299267,50.9840950918429,21.1154835010175,50.1815294423167,56.0835552033269,47.0769608980274,28.2463947542204,42.4743239518631,47.3036803998657,27.7175988574908,34.5303333791633,33.0548795629292,54.4067628425408,54.68327284317,34.0648445549729,25.3472834739941,22.5533879273366,33.2965378499065,37.5355407241276,53.0546827958633,26.3394640653165,44.4045915389207,32.2854448464475,43.6529341961223,22.4680790006492,62.8611272013051,42.7401150088098,56.2055238342683,33.4801771754809,29.405684119955,64.7883244088067,56.5717505673908,31.9435401351075,33.2159891869067,31.661959744295,38.2747027763933,34.55056467682,29.6113163458291,28.9650086795366,68.7529442470472,47.3775177935608,37.2819605310888,27.2942482342104,35.4442366183221,51.7265583858308,38.5692868984671,24.2294344808276,37.1619510386704,35.7300314614645,32.7422047757092,45.1908222285363,41.1534906180346,70.5506177304203,32.5349838549404,46.2138612104754,32.6662283646162,38.2010718951371,29.4411296686724,30.0402176834625,45.1652106869213,48.1000633161713,41.2329469864467,31.3394546897842,39.0043315095263,59.2480621526825,49.7572831570758,31.85315313185,28.3826585905533,53.3963283777533,40.2465520402084,39.6535158220321,39.5702705027795,35.2488272427214,45.8668683433917,38.3039742708784,31.3864134274625,37.2396141522734,35.4871759014603,43.0234462324033,36.8013978407645,46.002864750675,39.7963469881183,35.9395875406583,40.0692467787232,41.7973674963408,39.4634051317632,45.2177015047321,28.1736530637392,40.3090835287154,44.4493589002542,42.4719192238142,58.1618044006466,40.7958018159604,32.4848039874292,48.3469025122092,44.0538163605218,41.6384993912325,35.67581590854,51.7852803729059,36.232309140067,43.0237381094712,47.3220816418108,42.6320368044158,39.7635244302451,40.4987938085217,34.618211599882,42.2712454887512,27.0086195848208,56.43622359473,41.9140289307442,47.38473954647,39.1595267139192,39.9341960900142,45.9319786961521,39.4004306526046,36.5101199288908,37.1603239588588,32.5158104881826,41.1082088811617,44.2952216227,42.5681539072574,29.4496590108041,36.3771808165488,47.505542890912,37.1806654447459,28.3602760919559,40.4850503474134,34.1258511496308,39.270013904968,39.4119532838754,34.6590181913767,43.5301183666771,35.7452274030187,49.1355211116892,40.5166182554733,40.8255294938737,46.2712758709721,35.7599222253787,40.1951481717874,40.4683937537016
65.0469184159791,42.0061560012499,65.0341032982561,72.2947643214479,67.4353249033646,75.7080909137813,49.7988792985311,68.7399567199893,76.9557725855246,75.0742308940103,42.8036581366416,52.0190618722917,50.7639931387165,76.7838090137397,72.0767227488145,53.2184485913229,64.5635862239166,49.2798314221066,54.0012885667395,79.0535851360465,57.4502510122729,69.533917586927,55.904855685854,60.66736563625,58.5853282622063,55.2978274326867,77.9724009777811,51.6798866056562,63.2306486932397,43.1238548098333,69.0443106933887,1e+08,41.2743406149166,53.5001193788928,47.352028462125,74.9988282045301,73.8024905887041,52.6408224769658,53.8903269320269,30.2336517400051,47.9456427740816,56.386562908,31.0118956902066,52.6245874998957,59.5144871818751,47.3559086300625,36.7316519244417,44.2402516510416,49.1395914382561,44.7423736949057,37.2506216337708,39.0019448543832,46.1991094452415,67.8060467981282,40.1265435534634,34.9637102388625,30.3277893438483,46.9478042657813,44.7909175739895,38.7162919931982,57.1800097072811,56.4141807029999,47.3176598572916,32.2945412031875,37.4645836002395,51.038833960986,53.0276188499766,55.1115018512813,43.2478081277917,43.6176808108333,48.7539935974218,37.8799029063366,30.8660506169666,58.2252089966147,34.6473858646666,52.0190006393417,59.9637960867082,69.3253002125519,46.3016200265045,46.1522244826687,53.2894007817918,36.9775810830966,49.0248252225833,38.6325013254124,40.9866260857917,36.2488095169351,39.2311726498334,38.4631556691562,60.5425587315939,80.5827709535626,28.9072001044624,40.0344024586167,59.3556478400624,65.7949466919538,49.6248567978333,45.7301519670249,68.5463101227227,67.162468278,49.6455231412333,41.5461316842896,49.1864538869271,50.4497703152542,60.7058294797146,59.3779877141667,61.7711053820001,52.6142666631709,53.9257166750625,47.0613375572501,45.8782938043645,70.475122154625,47.1332334187916,48.3533266774228,64.0894680436272,68.6602429374584,79.5288934722687,57.8559089872605,44.5802161939812,44.0604055234375,49.5194903912501,44.6198197961354,56.237248126904,47.1514161441667,52.9864428865,48.2187376774541,55.791346418823,43.8698128757542,59.1364322904854,56.2205226644542,43.0834885297812,45.7927188636604,45.3838009632708,48.3661872235376,66.1537638574271,50.8644870180104,50.8849204795,60.1365976514583,42.5046137002916,51.2874962823958,54.7746379109084,64.1316677417812,47.6482434869438,46.1178433292604,51.6365756239063,48.2732476554687,46.6709803831042,45.1663522291875,52.4358709483333,59.1534859588333,50.8194863869626,41.538338415198,47.2187159236979,55.8120943607021,60.5449025208876,64.5611931421876,46.4743300207708,47.4618713743626,50.9768537473613,59.3271212710417,51.2758979660938,68.896844912925,60.9656674650521,44.8156440966666,43.6115154481041,56.8314810752021,57.2788522029958,52.7714006204396,46.9854069440312,51.7304218061979,54.0986474853644,49.4935260729395,48.3374880325625,46.5879937435188,51.7230110819271,49.5315732531626,43.0000467011709,65.5723337871228,50.6334365120521,57.2379183058312,50.6769089825092,42.7124971967916,48.1257549966876,56.3691345361562,50.1939287026042,55.5234674650604,70.053713820277,56.7936652224799,55.4083440973897,64.111613290675,50.3171798077604,46.8415855092986,59.3196750970395,55.490476626425,68.4858634130938,51.5562818840625,52.197214442375,43.9924505903333,45.7571765883749,67.8773892272216,44.6658098839876,58.893433448252
53.47569131075,49.6641234988332,48.5006792765916,62.3968084096248,47.3374928504375,50.9774733567082,43.3904063012916,62.0892217320666,44.1662013432375,73.6441522598333,27.5062325798549,39.4677815864166,42.8237512030249,46.5134358196668,69.0614458870165,28.3385922524999,99.9501427494998,36.4125941744983,58.9523361359166,57.312993044288,56.9856064240749,64.49546890575,40.4731149550832,47.645747011927,50.2832066074917,55.9160467745309,54.4833389527915,65.1809768755,86.923486604,16.8706627455417,43.9799793214908,41.2743406149166,1e+08,46.4656694601607,45.1065635454374,51.1441989909581,50.4270673240417,39.2599091453399,73.1849948437458,27.625243017675,31.2599887185249,41.1140390594581,18.115410138775,61.903536649625,51.833694419125,30.254141836125,18.5492899295749,38.1735284335938,24.1629031164499,42.4819764519491,21.299877996625,33.0464490260583,26.2592661683715,37.6683956134583,29.8134891053183,21.7938338851374,32.2534578914849,22.47401359575,59.761939274052,29.6377643518633,32.8879773543749,47.949646653521,37.0466710195,12.016741611625,14.638587331625,24.0680736273642,21.9660383663642,31.5021332241833,4.05666932224998,21.75183382,23.6617896715,29.500979563365,17.05628738025,50.9858152026668,26.1477900583749,50.6055219965825,48.2709039651665,48.2844259884167,14.0855960032679,22.3762105823999,47.5238747393541,8.30393618955,42.167176244375,28.2896839168124,31.075304069,24.660746212335,25.6501590701667,38.9449973981249,62.3880193265626,63.4528324771667,43.7137915847291,14.8528845288125,32.4655502068332,41.6683951030239,48.2790112143,17.97492156095,50.5497349438414,51.9422577170416,43.2893291217332,44.3250118514853,37.9826059108957,39.4808584025667,56.20096312285,42.9608067661459,61.9302786239375,40.2502287818499,51.4132468480834,42.7754046400207,36.5918281416666,51.8062699167918,39.3031262806668,56.5733744524209,81.2250770748355,67.1945614888333,74.7341214434251,56.3557189441249,36.9786632622166,43.5558339399584,45.6644357480418,44.6778381093125,49.9450747619875,35.3352084493543,45.9628619489585,35.1539380851625,55.6800801906667,47.7530318975792,55.8435185034334,52.9688022536999,40.9889530065624,36.4243884514001,42.4341528980625,35.5505613347875,56.6585180269584,45.8986605209167,50.5490844880417,43.4299033915833,42.4330650894792,43.3315093589375,41.966831665654,56.4422148685833,38.5742348465667,77.5001420224582,43.3502597473125,42.4615462663125,41.3751532146668,41.0313997844167,43.3973034938957,50.7173616693542,41.8514529351625,42.3669733212291,39.8061338716041,45.783157224371,48.6291495688876,58.4527404243748,63.6456022746666,33.7218110060166,34.7330253575884,59.382420269125,68.8318467485418,52.0102257696749,45.2713303136458,38.1733277618125,43.0385479579584,48.4070098819959,58.0236090392667,55.6673607625542,36.7718845200625,48.4352573971458,46.4579965840208,42.0744163081957,39.2617119230624,37.2649849645917,39.2773577307917,42.3364984991833,37.7733433400166,43.3356652729293,36.6959881522751,50.9517151579874,38.8331302387409,37.149468927,35.8913586375584,51.9079229600833,52.7776457041042,40.9101839887458,56.0836753599917,50.63004908398,40.5946295330958,57.5067592937042,46.9499664673125,38.3384929168368,41.2049457226834,51.0953465582083,53.6192138601251,45.1213691920833,51.6986959916458,38.5774292597709,38.1711339529375,46.1824652405134,36.6335712214667,48.5023084303667
16.4935442797857,27.988239482375,44.744226268541,37.9713453895536,37.5626935690237,32.2404262843392,54.1660370410954,39.2164111144165,94.2575465926724,67.398097580598,32.7351248619518,28.5688815690357,21.65499349735,69.1257019372501,71.1985470255608,43.7823421373152,71.7795192621547,41.6324391745694,20.9789522361785,64.9723612706312,31.0988822919071,51.1000660898959,67.9423117344656,26.4121587219523,41.0466732126535,82.1630490190908,64.0754710258747,49.6347235203214,34.3999677679761,54.1283493854522,30.4542251271514,53.5001193788928,46.4656694601607,1e+08,29.1661086948929,56.2196673276188,50.5066862633776,39.9975326798602,61.0189234963265,67.6434079879937,73.1194252838058,52.5538246263377,53.4086306957657,30.7317827206548,10.5408516977678,30.9259136340713,41.7767464952095,32.3128920474509,40.2164094871572,16.3585523487765,40.4220287792262,38.1644884343261,46.4458288715178,60.0420746955181,36.2827311075862,54.5090022405517,24.7981900211843,47.3196546153154,46.257623030186,36.8311484158812,40.1582621899465,45.3865611903035,15.9112794423125,46.992541273125,54.4460125002752,48.4351021761035,37.1759168010393,49.918840711682,50.0486405096606,36.0705563706428,38.8352493688727,30.5650760026329,56.4871212670106,53.5037281784643,33.8382542756428,13.4611020474994,8.89149755007137,50.379314057357,39.569915669241,52.5784101186196,26.7248473470357,44.8158509520706,22.9005923626428,36.7403593730625,23.5564323824137,65.4558949186385,39.2157261382738,51.2438057699821,37.3601679274256,45.2288925170059,54.8164903567804,60.0181946099482,50.023187745509,56.7840433318571,10.4155696302202,42.6032173591906,53.0716930235714,27.0077336196071,12.4645591654857,51.3562474691882,46.4097532331607,39.3720530535464,33.1473037497071,34.3211732784286,46.1018221979642,37.3933482327821,32.3371510925,34.2015745917679,43.4165204673214,32.8029427618036,47.4164384986965,35.8164579679035,67.9244956269008,35.4935481914286,42.8669729138892,32.0982532553929,37.3998079487357,29.4208192820536,29.1941153532679,46.8009340243571,52.7836135820036,43.5402306919821,35.8661862648036,43.1271132916143,61.498192984982,44.1559889546499,28.5998815266929,30.0922683933357,50.5505054158572,41.87876060715,33.5188837438036,40.7810292896322,36.8229899658036,48.9466487827322,35.955032604875,39.464160673125,32.2307138779464,31.1006868156071,54.228321334932,38.5981321718929,42.4077155862786,32.9755266566965,34.3089941566607,43.9239405728572,42.9591818151964,39.9874906791071,46.3138028280178,30.9621297273749,37.2557778345428,51.9066832020535,43.8054693933214,61.7009088396857,37.055041091175,35.6820349872143,44.3914997960357,40.4349335683464,41.6823634267343,32.309005615375,43.662437670125,36.268930618575,48.7812800327144,43.6965224621607,44.9735881069642,43.3395502229179,33.2376960294572,32.7323273843536,38.6201892130893,31.5205308104822,55.451921770375,41.2522572327892,47.534088497,41.7828687933786,39.9552917147322,50.1854875691357,34.9918374047929,39.6633703242464,35.3134138021178,36.5824285336393,45.4455433899229,44.0343010253571,41.1972421345537,27.7948759171072,32.2374923737857,45.4256551647571,38.4705572009966,29.6342568857879,41.6238039465072,34.0955390303715,31.4922565884285,38.2996639125978,40.7111935479,55.6872627366572,37.7565100637679,49.5830266141965,36.0516086608035,44.6561007155893,50.3475234218392,41.5527141968021,42.4575252397,43.0151805552464
36.989739189,30.6453445207917,57.784417109175,51.0154431467082,56.209229682771,47.4835443723751,51.8728448271874,57.2185972286458,69.4079379116333,71.0458861025625,32.0726180597099,39.4299135297083,46.5076500722166,59.4150911706874,58.0249755180875,43.9214940841042,74.0040661834167,42.1987245477795,37.29517612775,46.8721586920874,50.1533437368876,54.4653766594166,51.6918777465832,46.239127234802,49.1911698171875,61.0199770137817,57.5599345719375,53.9950291319791,47.5386256542916,33.9884178268749,45.2657735311767,47.352028462125,45.1065635454374,29.1661086948929,1e+08,69.22688207458,55.842128645406,49.6099342201292,63.4753677685375,49.0349868771164,56.3789720852974,53.0308800220833,53.197188918994,44.8680418153541,29.442776098875,40.3234747653333,28.5254134771833,51.8792506929687,43.607915483929,29.2810850735008,29.7783038916667,20.0317175632333,48.8742502616874,62.3595987012595,23.4805840659733,52.7988241276,41.57257938755,49.8164946331042,48.8827730569271,22.0415638644283,39.5397163581874,36.4212498857916,19.6899058602916,40.0819470963333,34.4215700086666,45.1599472546019,51.979460859209,52.0452419678959,45.0160384281875,36.532402035125,44.7070504149634,22.5063868869266,53.6835707341957,54.1094817684373,27.99760743375,31.8649500549067,29.032607651875,55.9720055863747,45.9853554034641,50.1548610885333,39.1588162687499,43.2294696333215,12.55660380125,29.6211629118124,25.5393667797916,56.881623142475,35.5558777567916,58.3760855900207,48.7810480185834,58.8960556938124,40.4182712988457,49.4576542692249,55.6779227481874,59.2705388027528,25.4367014754333,38.876521125875,47.8148041791875,47.1416080935834,31.5508840522833,41.2547437383812,37.6841196880625,37.8013849331,42.6654006248291,35.4719408246667,52.8624798963125,35.7107771315708,37.5737554974583,33.2839020972292,32.7671872431458,45.7729169005625,37.7920826859792,40.7665804370376,67.3704911866775,47.5686196178749,48.172170936525,46.5243444463958,34.9577320923458,35.2269131061249,28.9550287827083,42.2281046008958,41.2329041723459,34.77504821675,33.1395816379583,37.2359332237958,53.166584285875,41.4841878105041,37.7204962910084,42.4026925604333,44.0195961524791,37.3474810055875,33.5693378717499,34.9968055420042,47.7884556192083,39.3424408320833,38.8984983120834,39.5909726310625,28.0458638496667,34.25120484975,34.6761272435334,46.0823460439167,35.2638050323917,44.2288213005833,29.1310679309375,34.9995788533333,37.0998300576458,34.5218921453124,39.9527728274791,43.0876689619375,34.3982276234208,42.4618765263333,39.0656859387292,51.1662717934833,43.1053079922583,46.5474850729166,45.8694335265209,37.2262913422125,33.1157036468117,41.4037412854584,46.3932220985834,43.2126261594708,34.9941787072499,40.00610677725,42.8789889370625,44.5031955907959,43.4406738107751,35.6602823050917,37.4547244691459,35.858574542125,47.7015026363957,35.9720182333667,40.6690104831875,39.5227490199708,29.1258031827708,44.4680905324334,32.9838466958167,41.2268280710709,30.2046961826208,42.0709386363416,39.6211572713217,39.0474749919375,36.6800613700834,34.4160182294584,41.3659490005417,42.2866564269417,44.4974653663417,32.4832103643951,39.2799125428166,37.3231239793624,34.5565084720208,33.6006242138091,37.7433367168583,36.92724508955,45.3327484010209,46.299357213625,36.7105678626667,39.0543400729791,41.1372619312292,47.8255385656741,36.6097173743876,43.8997563167376
