1e+08,16.551620786,36.699583052,28.0950636556,23.97305727,31.1685667836,39.871976702,16.67001138168,65.0817030089999,45.743680278,45.0533914962599,21.783983014,24.0885222552,42.060061074,44.4704396158,37.5969465668,46.5816604539999,43.11617395269,23.7433409329999,60.1529621014,46.1173307192,31.49931014,42.93929084,22.0399967658,24.1528796836,49.9448265988,41.6556890832,20.311191918,35.4006899179999,49.2312940240001,26.009865733124,59.8101828909999,43.760858959,20.1673703038,29.7563577755,33.4402155275,38.0820495089,18.42846480024,48.4226270249,54.4593988823,41.9551671111999,42.3641804816,49.5689104216,46.3384724039999,26.373708232,40.7487999976,39.1210467586,42.160213168,38.7082178308,35.4664724093,38.5339841784,31.74786381,47.451875976467,37.2201170701,32.8532525881,54.2554690303,33.51525673046,39.306603664,27.0616315748,34.0676340039,30.939125907,29.2589059332,25.9011161015,44.393454129,40.0142119704,42.3825221882999,41.3743853997,35.619589605,39.5287470919999,36.2875731035999,28.311973445,32.000219221,48.9217499046,39.3177156668,31.6032771252,24.79534978318,15.585639422,31.867121004,32.8272143867,44.3119389112,27.65716291,50.064409663,20.4633937544,36.3084459298,28.470756175,54.87359029798,37.916739416,49.9870223656,34.2747927719999,32.342450534,52.1515513238999,47.5723852958,46.7696776186,41.0436025152,20.0302555835999,37.0861239069999,34.4715035701999,23.472339142,22.7719287366,36.237110562,39.803616325,31.4652898666,27.0502498361,27.698572519,40.778877998,29.8008458528,20.118581358,30.208105386,29.146599063,23.07577144,36.411815194,42.7402731161,71.50126099539,22.967992508,26.5341407817,24.484372133,30.9779209642,16.128438404,18.086326688,36.495807909,45.1624491012,35.769065272,24.012866109,33.9951641354,64.200391553,50.2623352684,16.4295117566,22.1379890598,42.517996171,31.7362158576,26.535057851,32.4213548049,22.634195976,43.5069535805,38.640307797,25.7592727285,27.904233184,24.584035888,37.94755455795,22.649402641,37.0996341686,36.876608286,26.292356858,28.880569114,38.010306789,35.48232777,41.020200202,21.649532458,30.1686316204,40.9882342275,38.366464783,51.3424502774,27.8443086648,20.903278029,48.085117645,30.8099842644,40.59994315517,20.54261962,44.882453908,25.1222287852,36.386746611,29.849367047,39.038590582,37.6304039939,23.4471010124,23.1854050168,35.056679852,22.108240458,50.52048624,33.1643685097,38.005523125,38.0490368877,30.101440794,37.7918964566,22.9381904024,27.6993397329,26.9683873991,24.5101259623,35.34266400203,38.994756475,34.059321507,16.90991368,35.21172332,34.2907950174,27.4994670003,22.39006206635,33.3414048149,21.1853960648,24.92320428,32.97297323483,29.7711895554,35.9702377083,24.107602092,46.433988741,23.442954531,34.239250248,37.252002465,26.33681192282,34.4818173817,34.5935586378
16.551620786,1e+08,32.999197871,32.2456142263999,27.150731,27.2557188816,38.5053235279999,23.3853467468,69.6775437947001,38.0266684852,49.46625722146,17.721165276,25.21927184608,52.6276185911999,40.310268781,41.122104084,44.5660619989999,46.82206315349,15.8792050818,62.0608607184,44.64639679378,38.1976899448,47.2383205529999,20.9366676146,28.5447184756,59.1834169319999,36.057115095,27.2895616988,42.2962376906,53.2674798346999,28.42946516652,56.397274494,42.089783879,23.1458904788,32.3706852307,39.2793019233,40.0102352747,28.753445696,50.7242797959,52.8659563673,46.1987136372,44.1991502134,48.0455059954,46.260958521,25.478880072,46.4235511538,37.5578932977999,39.0665445126,41.7771892628,29.7450163201,39.5917399864,33.294240978,47.890494778267,41.8945813672999,34.8049079743,54.2542175845,36.8854365369,44.881318818,34.2156991018,36.4507199295,22.2809504312,31.55904539,26.4139975194999,44.0412410826,39.3841471876,45.2646213837999,39.8367725489,38.9998557852,35.968740451,40.5150095752,33.0187664642,32.7949397745999,55.172812419,38.596394804,31.734526206,26.2203820882,22.814250436,35.7226180111999,35.0200479763,48.6370200932,26.8183889178,49.918433441,25.147710492,35.6375101896,31.8783579261999,57.90846633818,38.7052048329999,55.0590426374,27.026875433,34.2912047307999,52.0483002101,52.539278936,47.6781189936,44.1937590656,23.2684974048,41.2262929332,38.0130005456,25.3695572876,28.6615654678,38.3054613352,40.4712371588,36.0716687874,28.0212762159,31.2117801364,40.6665311056,32.9945219936,25.8270310938,31.0357715084,36.6686769322,20.4592920908,43.4438023206,41.2446857563,73.4854902760899,24.7142794086,31.5649997611,20.2105750862,33.3137716112,18.5937014574,21.176130416,38.9964691426,49.7612690828001,36.0495742268,27.3413156112,36.3704688474,63.9695851158,45.9825632656,17.4203528074,21.4714201543,49.0829677806,32.9005451128,25.9847367952,35.5200488319,22.7311088274,45.0515749383,36.4524727496,28.5718744191,25.7073157806,26.4357429572,39.85378627955,25.3371243862,35.0399266668,39.815086155,30.1960881818,32.922447814,40.0453674138,33.5165707506,40.8168592992,28.094120682,30.2166950166,43.8596693027,41.1588558896,58.5603469054,25.9669246708,21.9291351674,47.2455768744,32.520849577,38.26665218837,21.10463551,45.874462289,20.983319701,36.6991363774,35.960614301,41.2522824664,38.8618845431,21.5931224428,23.9878070734,36.4237074494,21.7229536962,55.1331042696,33.0642812921,42.637408717,37.7653772535,33.3597217616,42.1670749716,24.2514108792,29.6447274993,30.6176624033,22.0836164551,38.39058617303,38.9373673584,36.8953257064,17.5045564462,30.261971862,36.7627996686,27.5807869137,20.68154045793,39.7238922779,20.4853329006,23.3095855378,30.07461148443,32.7036353476,42.6253423211,24.6703456256,49.1216848008,26.6078423408,36.8767680772,43.1775506902,29.42530109302,40.7170891971,37.5285782806
36.699583052,32.999197871,1e+08,32.2111990580001,35.4230447522,39.8885816696,37.543603431,33.9246496771999,53.1554012086599,36.3441853332,48.3106476777,33.975423725,45.66408158956,48.7897466748,35.702325811,37.4773307366,58.6101061176,50.4447528106819,37.2854064769999,45.9808503924,47.9655951488,38.9152475772,44.5335561161999,37.415046211,31.4576004928,45.098926639,29.5878121504,32.8785075222,46.2807275599999,57.9101553242999,35.88357617252,62.0908163112,37.763656139,43.7718941063999,49.5114164571001,42.04206088774,42.0275579823,41.7213257584,59.8279229098999,57.1593172727,51.49106608836,51.5719952812,57.0562818887999,57.8330222985999,42.5903870515999,53.3442206148,42.9411523338,43.8833861419999,30.7256484792,46.4614334636999,46.3319996074,45.8329353792,52.601173265067,40.7703752577,42.2679130367,54.9327590764999,40.04692038278,48.9250401038,35.4510618688,40.2750514725,32.784258028,35.38825634,42.8723398323,50.8485040886,45.4995970968,40.9656772479,42.0454909439,42.4650904132001,38.782731642,40.6986336236,34.6841705635999,44.0335428572,54.4108990144,41.0452492954,48.2349471494,37.1537409226,40.1841189781999,44.0066824647999,41.6704527623,43.7235551538,31.0812149432,47.78689341516,44.879728896,55.6079115204001,40.2974517622,63.2203644585199,46.5121543234,51.889557917,19.143071068,35.7457945648,49.8501929731,51.5489770952,50.3431074988,35.7336040058,38.1672917088,40.4100696828,40.2888442667999,32.0375792038,39.91490062092,62.8620466378,46.8109152712,43.642484043,23.9953605993,32.705781541,28.3544700116,41.0044991382,23.0217479222,31.8593988016,35.1032702626,31.3002257846,44.6621488218,45.8224812243,86.0423111080901,29.7722710888,33.0914599816,25.5921758642,39.4494986038,34.0328331968,31.532287282,37.8799692422,50.568243639,43.727480381,42.9384154696,45.3665697164,62.624243529,46.785048108,27.0291648418,31.4534616017,44.0521944106,42.6300084776,39.5180318268,48.8978725225,33.2590822222,42.4857830871,33.5372155664,28.2317934633,39.3225305096,28.5573018488,44.58162070035,30.5454283538,47.84926314,44.150937327,29.2874145108,41.665366011,44.9750553878,40.4430858558,49.6042753812,24.8550307692,39.6005079322,39.1750663471,45.8112915686,45.8092088556,39.8225184288,27.5373779084,52.527104573,45.8177955034,45.81741688787,28.6505095886,66.371840751,32.394987042,36.3708529294,46.85680218,50.997892166,26.7785927469,30.402259156,33.3647033456,48.1300275272,36.843488328,59.7085554518,47.2005567077,47.461626471,47.1551429499,37.2868463452,41.6236229476,41.959668148,31.3884695077,34.7175704503,28.2659445589,41.11275736963,50.0896650716,43.6414412554,30.0123746488,37.7612386592,46.8856789478,31.7473989811,29.09337360693,38.1918068189,27.0712407058,34.0493699632,41.33390482623,33.5652165576,35.5682626295,34.1325832174,59.1996074152,32.0928712994,38.3291223984,48.5362712326,31.19826925102,37.9409034901,37.1487761698
28.0950636556,32.2456142263999,32.2111990580001,1e+08,24.616368232,25.8367894864,38.5492745852,23.9147480636,63.9120864277999,42.0603238748,40.9150975666,28.6650908922,30.1568362446,35.5587516484,42.7340958874,36.192404012,55.6808026571999,38.96570234661,35.4153351086,36.262625241,46.9996195817999,36.3481750144,26.5254988142,26.7930628472,22.4997455419999,43.5114427894,36.0123572234,29.9527245096,42.3491398976,33.1243045067,29.14478931872,57.3151725758,39.22398347,30.1345410134,36.2716057394,32.2961154945,36.7744978320999,28.998407216,49.6328801125,39.86608605396,29.5991093748,37.6684426084,39.0094993198,52.3663065896,31.3553318554,32.1564407304,41.5914693164,44.8443569034,31.4725264424,43.1488509297,44.1974791234,40.1822637112,35.890236177867,27.6366817585,40.7332975068999,35.3945539448,35.08249820386,27.87809829,35.6896805354,39.8613410847,25.034425526,32.3136450776,32.8812613717,46.0001290945999,36.496373743,31.2399919804,29.2229427845,28.7223405456,35.9358319658,32.562197911,32.7619056056,37.9906790885199,33.9856643158,25.6896681659999,42.2439051124,30.3505206109,29.6334589806,36.7998441552,32.5425519571,30.4827050807999,25.7018344212,45.87299288404,33.5193797822,43.5977537759999,37.2561903233999,41.26005258484,39.0369450519999,32.871647208,26.8323103758,32.4125061316,48.8131205989,34.4989649764,33.5729327942,41.7823025776,28.0755548642,24.3748955436,30.0871004246,21.1250749626,34.7395489178,41.09400767196,34.813697091,28.496425143,25.2289042873,22.9674978628,37.834816096,27.2645206338,22.0968155712,27.5719099562,26.2323232034,21.3955496042,29.0018960292,45.4808300245,78.7901089826899,21.244405764,26.9538311026,22.8821715686,28.6155685734,22.2884609762,19.4884418324,40.6316095608,38.7822513884,32.4786949492,26.4192546446,31.2207531706,66.2881903034,49.5092297968,22.1531238014,23.8612307591,31.975236315,31.7129806262,28.0849293188,32.0588984831,23.98630232,36.1336254233,39.7733741482,22.1903284513,28.9608124664,22.1281211026,35.27710982755,19.6187108496,35.4216083768,39.810063117,20.076269662,28.2758244938,31.3075469062,30.8108689108,37.075663881,17.2179666452,31.7419702282,42.6976818191,29.1582244148,42.3236139382,27.7439702792,23.8198840966,49.3064389878,30.829381201,31.96591259847,20.5589757924,51.9128260149999,26.661951953,39.505396913,32.7244693402,38.091341923,31.4838224137,27.4426119028,26.9737121958,31.9141985672,25.6005627216,43.5953651264,33.2509800161,34.7633963400001,31.2438031249,26.4022352166,30.9226972972,27.2066136732,24.6740610533,25.4427055807,22.6346077629,29.48206392963,32.4558309536,28.8726178584,21.2160497104,39.3411442522,35.416074462,21.8485532335,20.76055166885,18.5198631829,26.6239449406,25.0097084942,31.47213071643,24.1006360984,36.6289950679,21.0526549012,40.9765554288,22.9733532062,30.0178852474,31.6858363608,23.24884409002,28.9710425297,25.09984883
23.97305727,27.150731,35.4230447522,24.616368232,1e+08,29.301516082,42.68328561,24.7214021624,51.71976659346,45.5556227812,38.7002964055,27.135159102,24.1003997026,28.9702635244,45.5763135652,33.0420023156,67.315398459,37.00202626103,31.4449613942,38.4318026839599,48.9255370327199,47.2758811874,35.447069073,26.5505098458,24.767105718,40.1805491001999,31.696483205,31.8130202494,61.8477961091999,39.5479800009999,28.884750892524,62.4587346477999,35.1122035206,21.6518185494,27.4653680332,23.72936538174,33.97321152988,21.9533388087999,53.0498129343,42.9290955681599,32.2156027722,34.9719043659999,38.187742719,51.5575400613999,30.1696331023999,35.8675128938,27.48176239152,40.656574484,19.4021562996,34.2898561428999,34.9812349556,28.1170653062,35.9351144496669,24.1468106527,29.1161395661,40.254302934,37.9135597589,31.5164200924,35.6695152938,28.3333842363,26.3006127778,42.8065785278,23.0988731231,36.3328312624,28.3195895908,24.1905995672,25.6678425441,25.9566818962,26.9005632346,30.1953268054,19.2271612126,23.8387147566,39.1492225254,25.8574785532,29.6249874992,29.4317112550599,22.2881734576,28.8249641318,19.8188533631,35.84813544804,33.5663272448,35.26600082896,22.9696430612,34.1821188078,26.9735938371999,42.8397170896399,27.8626239364,35.9857108142,36.096635919,30.3509773698,47.8354974559,39.0292694105999,36.6807610632,31.5445088314,27.8575040242,26.3229896284,30.181479496,32.6750096305999,28.07694319148,32.36223083256,30.5126074764,31.2123276798,33.2851571971,19.8019683538,44.7456767836,28.8311969369,27.250835536,25.1357291796,22.6607108962,20.5254758588,29.7125847878,45.1749538926,77.26625242669,29.8285506202,36.3491070468,23.9669739316,28.9100917976,21.3207895648,17.2640274524,31.99090653,32.1572386452,29.367540381,26.4064111144,29.9381377574,59.746023935,45.9202134178,20.97615891,26.4314992479,31.2420114916,25.841560888,26.299372164,32.5986755685,24.3581294564,30.4374283161,40.825120421,24.3054490079,25.6339379204,20.0520645336,27.76763654595,25.5119176898,33.7500752688,51.1576772788,17.317463872,24.1809270736,29.5803957934,26.6505967166,34.1372105106,23.977081608,24.3992969692,38.8432043027,31.8934082722,29.9354192116,29.1314979808,26.6527819688,47.3350949204,26.199714304,30.31881706087,26.7351356978,54.8132100454,22.4412165044,34.7367928668,34.035928301,37.874948648,35.4112737197,30.4369486572,32.6860234616,30.2076151136,26.9035825492,46.6714027554,30.7706919241,33.8774153706,27.9441164907,21.9608413134,25.4530530564,26.8265804228,21.5167035777,19.3573241219,23.3375477416,30.09787978183,32.8140406406,27.0439124274,18.8327698786,36.3974839914,33.075083806,27.4109631557,24.68679535874,23.7882988722,28.571954263,22.3482244776,28.84618583583,17.5305449844,32.3233549931,25.2513878614,40.249921925,25.3724288366,28.1609235744,29.733183923,24.35434005622,23.7870142051,29.287134769
31.1685667836,27.2557188816,39.8885816696,25.8367894864,29.301516082,1e+08,38.4898523709999,32.4471449596,59.4681046697,48.5978264334,52.1509011261999,25.03896068,35.9223907565999,49.6276635398,37.0636054521999,36.3242293723999,67.8421144984,47.5674777690099,25.8962033602,43.4679465252,54.8072015556599,41.3216658782,30.525125858,25.067389694,27.5752821144,50.0654930602,40.03733884,27.9099320792,58.3317549748001,44.3872085925,29.334977636324,57.1369115383999,40.0988370642,31.1419797298,38.352676867,43.1678609065,39.1948640432999,27.8956185022,56.65036479002,36.42498071196,41.9920749778,34.7258893336,34.3692716566,60.4913999234,30.980885417,37.1804753524,37.34009309,46.006895772,35.6556583566,39.92984033228,38.5821648833999,41.208964102,35.273311362467,39.963270028,38.1381582149,36.4387520638,43.27874779206,38.2750936522,36.9348538568,39.1746812946999,26.0092370674,35.31771233,34.4907359487,43.8502919349999,42.9918511938,37.1516863669,36.2410939705,37.8905541484,40.715934497,34.1052535362,39.7652005097999,34.55556245752,39.6316680788,28.192013973,36.7083661254,28.00606342156,35.424742511,37.8419274118,41.0018612252999,38.8663092296,24.2582739014,39.3290308838399,33.6784449276,40.8028018202,38.8444891466,43.39025793764,36.959515308,44.8828751678,29.9621955684,38.4588326034,51.1570620925,37.2827807358,32.7225012644,48.8251181023999,36.0939991288,37.199267896,29.5047766214,29.3268512638,40.5218461044,45.10528417156,29.8006028994,34.10349037,28.4466191363,23.1343708816,34.2549894268,25.0637877133,27.07114469,28.4593695398,32.658024754,13.7850653628,34.598831447,47.2466414118,92.1676773931901,21.2593010944,25.5612633317,19.2043950972,27.745818358,22.1292456324,26.3430480022,37.8324854552,42.171633112,31.6838262626,25.176999865,29.2508418408,63.2432546662,48.263341255,18.3795036712,19.2662900802,39.750424661,31.4368637438,24.0003518488,26.4056553033,16.8620542028,44.2079564684,42.534063511,26.4019320811,25.5567116772,21.7243448534,44.17769295895,17.8875392224,29.814484282,52.15822581,23.6328074182,27.9671612338,33.0594002262,29.5046235064,37.0394001392,21.8892517364,26.6631374024,42.8063511465,30.4159957192,46.5455926336,22.1984508358,17.6887926104,58.8009459134,21.4340290974,31.37188546807,18.426316936,64.3769872336,17.5063366524,41.4584708736,32.4441824388,46.022610085,32.4022515223,18.1421948466,24.4091790112,31.0103220794,25.7661779012,42.8070301364,29.1617085579,33.8495159924,31.4340063798,26.197895205,35.2519005798,21.3510376524,21.88388339615,27.9137804101,21.321532967,29.73665040003,31.2639686996,27.8803932876,18.5509130302,37.5425330256,32.0985180328,20.7648835248,19.49948766842,23.2280370997,24.5405540762,21.9833006334,27.84901998543,29.282890461,44.7553643565,20.0599621254,37.9074276556,23.56894209,25.8206983444,34.4927326252,18.09835836002,31.2994624419,27.1653127832
39.871976702,38.5053235279999,37.543603431,38.5492745852,42.68328561,38.4898523709999,1e+08,37.1332903656,58.236227767,43.6677724937999,45.7400964566,37.6058256918,33.9756853817199,56.5381063639999,38.288260281,37.4376386854,55.943608076,46.920806116362,46.546584085,47.9938014712,33.2077600078,42.80981942,40.948677079,36.2196239,39.9224486818,54.8689038277999,42.560374707,37.348265848,59.1156556772,52.6928104034999,36.05905351862,49.5927680284,48.855399846,38.7169272582,51.7961348113,47.5703680695,41.0783852389,36.399168538,38.7574746153,58.2040953403001,59.8878091988,51.353086151,53.6358208205999,50.524074786,38.798010951,51.030114004,48.0124205416,32.0577878552,44.1334791618,51.74246964412,48.529952721,54.3845478062,57.051720196667,49.76978603736,48.0931569699,45.3742971184,40.89609092282,51.771441162,38.851187391,50.6652457367,37.438543786,49.8236672666,46.4130471140999,47.1663710256,56.9106013635999,45.7950386068,41.1908079477,50.8797775596,53.507208725,43.53221526,44.0186423719999,50.3231646925999,52.2977866796,37.1857433316,52.0573631684,33.30312025496,40.542034122,41.86542648,48.3057224757,51.6172343599999,29.771188902,47.49665333216,43.1899066134,51.7182458636,48.0934282866,62.2226081229801,52.9367266136,50.3225868866,30.408382009,31.5708572480001,43.1414534272999,53.57861298,54.9893987258,47.6390459463999,32.9685317266,47.3223637786,47.107675859,35.58445454,40.12545164112,53.488645558,42.420961819,45.2213756006,29.0873557355,33.388764787,26.749857314,36.5497747038,32.567461846,34.457116821,35.790562571,34.689319478,41.33586404,36.2453361113,64.65046818909,39.119204634,50.1982207973,30.855507808,35.0225749522,24.732010688,30.863633589,32.966252886,48.2669297492,40.113902548,37.991072656,42.4311903224,54.706513313,42.7095078324,31.579582974,30.6406651685,41.385873725,35.9146036544,33.300826678,39.1805749869,34.238410455,43.9625654135,28.138772311,34.7522916685,35.474078386,28.465730541,42.42150304595,30.769875255,38.9020619236,45.894518778,31.990442358,35.531831634,46.276933641,37.195029883,46.823958269,33.351890099,38.6624322764,36.3783751795,41.775534268,47.2725997114,37.5472608912,34.055078907,40.763875148,39.0878342394,36.82022671157,33.306916975,38.192416432,31.6008203428,35.475789233,39.849799545,47.550126471,25.2802716279,31.4128872176,33.8708558792,41.939526297,33.490761286,54.315448304,41.2995435257,42.014992894,46.5624655413,34.452878789,43.0388891866,32.3597822384,33.93741797255,32.2191459851,35.5551552331,39.77279234503,42.933420317,39.26571598,31.314718155,29.509717082,40.9320416754,35.2463983255,36.12608929162,39.7316165619,33.897428823,29.222205333,34.84037896183,36.2030402144,38.3899568003,31.571013569,51.199515354,33.585248762,42.556054199,41.830043308,31.13984185618,35.4114077597,35.5184254278
16.67001138168,23.3853467468,33.9246496771999,23.9147480636,24.7214021624,32.4471449596,37.1332903656,1e+08,72.8519549291999,41.3179180760799,48.01073152434,25.293462627,25.54157454932,48.9355892528799,42.01247736092,37.357176953,44.7445945837999,43.07846730557,27.6729657156,57.8144879220399,47.5160658299999,33.40335271048,39.5953048709999,24.26844852884,24.78384861928,58.03046139088,37.27325535208,22.6466665112,37.2571938526,48.00639539258,31.222986433004,58.88412916488,47.3857498087999,23.335855033,34.61107705098,39.85405140538,36.31716819182,22.5175461544,52.95316059238,60.71996799258,48.6882935938,47.12569754872,55.59908437224,47.4071454817999,25.236903613,35.9196587634,46.3849330345199,46.760769843,37.1832417142,41.8849812030999,40.64224667,36.8127327718,53.668985324307,46.55967663548,36.84812889434,47.97814631858,40.88368986934,43.6031849536,18.7202556696,39.02467172254,21.905964684,35.0489294218,29.8772973701,48.6040904486,46.1579223676,43.0265993599,39.38550547362,43.64750451048,45.9413131804,41.58385177364,33.43625308108,35.2643411106,50.4863547025999,38.2782346411999,36.130395864,28.7739817618,20.9346708842,37.01953017008,38.3910262187001,48.4690143948,24.16600684792,51.56864703492,25.1032406126,44.80124712692,31.81438987688,56.47567408586,44.38644079872,50.7332914880799,21.6825903776,27.95938214948,53.5135976114999,52.01803012828,49.7058994458,42.60361183848,22.85860236708,34.0749618248,33.78229057712,23.5857131238,28.18568923684,39.75322914748,42.54458626032,35.90054952924,21.77327831878,29.51293613084,34.10928158868,33.02609306788,17.16654494712,28.97347550244,32.03619984748,19.45284304968,39.41875052788,45.6895667665,75.00331226919,20.43981776132,25.42416275238,20.8062317716,31.27307540464,20.1309618362,20.26137629868,40.89481249652,44.13442002808,38.16077553124,26.03655670628,35.67446416884,68.14507855024,51.06098883256,15.26261401624,18.90024665568,43.36481902968,30.1788674364,28.05486598424,38.3078555385,21.6148613746,43.38406829518,39.01562814168,22.69574830502,28.9938687646,24.07299239984,38.45398275283,21.32220161748,40.39439865852,36.1836274108,25.71408270112,32.08509752504,38.65784522664,36.0379672418,40.2944764618,17.646529525,32.33686594596,44.56249897558,39.95949934848,52.30720024348,26.39936595408,19.54040833908,51.216980013,33.81356716172,39.77687269521,19.85479199736,51.39505077736,22.78747440016,34.22479373792,34.5580485332,37.55871178208,33.81480636222,23.9670552318,24.76137122704,36.6125764198,24.069397239,55.47480077416,33.80063977426,38.74220707544,35.84585108602,30.76534060404,36.43847971644,29.24855079972,29.02717401242,31.60376202978,22.06473800782,36.96645385471,37.42648166752,35.46538220988,19.32770804692,37.42485376672,34.48365455832,24.9532596049,24.3653673231,31.67312935014,18.10609802556,24.35152006276,32.58880108523,29.17610472132,36.91917814798,22.23015170724,45.99514723024,23.65671726396,36.91767926816,36.71032236852,24.70545471658,33.50326478578,29.82755831856
65.0817030089999,69.6775437947001,53.1554012086599,63.9120864277999,51.71976659346,59.4681046697,58.236227767,72.8519549291999,1e+08,84.1297809902,38.2954056674,57.8501382614,58.3308946787799,34.18024890248,64.7251916366999,47.6868559179199,98.5530205435,39.285564555692,68.3151935268001,41.6437047654599,59.1547259498999,72.9643909212599,40.5839537259999,57.4710096896,68.4799723379,40.5432965403599,44.7422279307,77.3554934162,93.4087816651998,32.8554039474799,46.23072584976,48.8305741186399,26.5239600946399,44.5579716161,39.0200400546999,40.47184090576,39.75748632764,53.7411187309999,70.3501481441001,40.50577772222,41.0063165982999,37.3974932320399,36.8200658369,69.9887262934999,62.4934601179,41.7569116275399,28.52905946454,55.5944006508,40.56815863076,42.89876901756,30.41207760704,31.91439565954,43.022135617167,40.9530441189399,27.64704616324,36.9479920642999,45.08427854076,37.2583612318,54.405078492,32.42235516062,48.04818807326,55.6664435391999,42.0113384331,26.72208076584,35.92813921,37.8366304939,43.92353714998,41.7770399321,29.812384696,28.51499700516,34.69500596856,35.5468810152599,40.0465030706999,46.61321202906,30.3604654357,35.86819582042,45.3824373728999,40.88326990516,36.0802511374,38.14218716824,62.6891320495999,25.2549037498,36.56064970056,31.4903934730399,43.9945554401,45.1915705648119,37.0525960075999,41.8884835527,59.5894881666,53.4186842996,39.91204352608,38.9208918041,37.09007182744,37.20111037866,47.5801517893,36.21561649544,56.0163068958001,58.9428147896,43.37596168702,39.93138366806,31.93501916316,35.5467030687,63.76355349036,37.7293681973599,67.7313775198999,35.18480711186,58.3515054478999,33.24830418436,32.872761835,60.74166416584,29.2751322227,56.14833852224,57.69275422998,75.94804140298,84.8941943870601,61.28182366988,26.98670813432,45.86014913886,34.85897938786,39.94553666394,32.1419114574,31.44365651488,40.30265323416,32.57320581302,56.96053696078,45.53895141454,55.65693449108,57.1529292189401,37.16593430028,30.91612901086,33.17277308214,35.7076084078,63.87210021308,39.5211564466599,51.90396292002,46.67950048282,33.84322782886,33.47335503814,31.27835301702,61.49913507206,33.12852127482,78.41442435428,29.59732079338,34.6260811646,38.12919492548,34.28727667406,38.02853781702,48.45612433502,33.01417742662,34.18742831024,36.9351304053799,34.39014979946,52.57453213116,63.71627821908,57.57080743444,30.27292711846,32.40052062527,67.61806585452,65.9574119028201,58.8076700413601,35.59956619278,34.17341494566,37.7035350224,56.96495724252,66.72142118548,62.22564514426,31.6990438877,48.2172131515799,47.38969314876,36.4290147091,35.39754489654,37.19550380662,30.32083786018,35.94447649534,31.04232277658,44.50472914917,31.5206923590199,46.17519188712,30.78005230663,34.97019615074,32.80554036922,55.1033209726001,58.02820621126,35.08160771102,68.168390954,44.73562902757,40.77512007566,52.35282353688,41.72234461968,28.0441777777,36.80130371488,36.63948538236,69.52713672288,42.43990041216,52.1323203382801,34.63955220846,35.53021982626,53.93742488814,25.24342979284,45.98868909102
45.743680278,38.0266684852,36.3441853332,42.0603238748,45.5556227812,48.5978264334,43.6677724937999,41.3179180760799,84.1297809902,1e+08,58.5654315676,46.534315965,43.11182852488,68.0182647688,28.96534323,60.8963243394,40.309389688,63.528705784462,37.2198586627999,51.5703242966,41.76663731472,42.697610629,46.775585871,47.773210482,33.3924007384,64.9175292928,45.402039303,42.4270958353999,42.1141528708,65.1820892964999,44.69165555132,52.639613659,55.8858961356,48.7974682916,57.2270381524,58.9613682981001,54.1637026019,48.93148476324,45.2236295169,70.5186632666,67.31684775,68.0719483422,68.2297180237999,45.6261722317999,45.2392076411999,69.85987965,59.3284473746,40.0509839926,49.4868721728001,46.1948208993,64.5193044082,61.43359855,68.035228083467,56.3132886466999,61.8752913209,64.7712552526,41.7106009419,62.7302998148,44.1822200687999,58.4770297627,46.8994435112,49.973167807,53.3174596867,66.178341177,63.1774372924,53.0877059638,51.2495387587,54.9095959908,58.984784995,59.4425845939999,49.7870785844,58.7020313667201,60.9725498972,44.098137466,63.2077261104,52.8757478632199,50.303622325,49.057473153,57.8864646701,55.3606915418,37.989790538,66.27799900756,58.7550596614,65.8111284574,53.234875667,71.2813982836399,64.4763261959999,63.4707752976,30.6812734708,36.5436483468,49.2756003811,62.4946249112,68.412744984,43.5671879546,50.0560742221999,53.563139564,50.6348939529999,45.724236956,50.5766559644,65.599068266,53.5196441326,52.064135709,26.7191016737,39.790918024,23.5940233976,53.1084669472,29.3950328574,41.1474331312,47.3299979,39.0187878546,59.0462209762,33.4326987093,73.44027227689,35.1880942028,43.8520228372,35.8346691186,52.4248990514,39.0240617222,36.5743332154,41.5135956864,65.5984290344,51.7473254096,47.2955296898,55.3853188036,57.2906391902,41.0989195318,36.158448851,38.1163516265,52.813547028,55.8441021268,45.4093762018,54.0175810565,40.7724955952,52.4965423003,29.8485468292,44.6125472033,45.7892406664,39.941773349,52.75187375515,42.439925627,54.7960020954,35.867754473,42.533484404,51.202068901,55.3301999236,46.1981398378,56.615604927,31.692625086,46.8513959492,34.7718189145,55.2838158618,52.6297094168,44.529846109,35.2607029514,41.1953584662,54.9702674578,54.15964442407,36.3616532072,46.1501168522,41.6856442764,38.4249482458,58.3575703926,60.1269446726,30.2182487767,39.9153916972,36.9536880818,56.2046641028,41.6826824596,73.359706635,50.9454644027,58.5347892002,54.7952934015,43.0465593894,55.8255946026,47.2247759394,42.81203742655,43.5757104387,39.3396025434,57.06781832343,59.8080572084,51.839107186,34.783824771,27.4823148002,56.6696120444,40.7043044095,42.72892930373,50.5231608171,32.0834609832,35.8755605692,49.83566046523,47.1516946238,35.2878198453,43.0860575428,65.8855845586,42.7419261272,51.1697862268,57.6669609724,44.27038697022,47.9598636887,46.479004262
45.0533914962599,49.46625722146,48.3106476777,40.9150975666,38.7002964055,52.1509011261999,45.7400964566,48.01073152434,38.2954056674,58.5654315676,1e+08,42.94814993226,40.97731549248,29.463261792472,58.1920757596399,38.833324026,60.3706156502599,20.630496869372,47.7663187492601,35.00617690882,43.14486082144,64.96606272626,39.4369351175,42.8808379538599,42.6047793460599,32.85400085722,39.524187647,50.95745701426,63.05945162226,23.018580761232,38.663646650048,44.7975981420719,30.8545479122719,36.9788386784,30.92777913384,32.58287411996,43.3569624240599,44.80224722094,52.99267380944,54.35720859456,48.19058249086,37.6415284606719,51.8669527354,46.5938637842999,42.92508563546,35.918889634872,36.55587281284,45.9529866201,34.47611373242,48.2851825564999,32.299598269472,35.69768793524,45.9858083573469,35.89882698528,33.79252243446,47.852812028432,32.9409463404319,41.12595206092,42.49760904232,28.20808809524,37.9892558035,53.1033950956719,34.3397993465,43.3168975318719,38.98976776668,36.36795930052,39.8490048531319,35.32264692848,33.953393703432,29.47733866076,27.77885338616,32.32569588714,52.823674599632,48.6968046297,33.65259242144,38.8284100247,34.0269065705999,39.5482065031,30.27507857284,40.906827947632,50.0858302802599,42.4119783679201,33.6923386272,40.591090232672,35.6313999386,58.567624731848,33.92926793352,48.6273264948,48.88216219446,42.0929006583,37.9353463937,44.6376320519319,40.2597082393199,36.56692950942,39.53445036,28.549545189672,41.5963802932199,49.5824710184599,32.3263456468,34.30239732376,36.16046959248,32.66394548332,46.9642236013,30.93430708216,54.57967000778,30.148758256932,41.9834987174,27.78246467874,30.302667614336,43.89674992026,38.98620799242,42.07311119826,55.18237609129,44.82652231934,60.98800155966,44.1544916793999,28.59319873166,34.1608551694,23.8342926966,34.52724916096,28.64619180886,37.139593147556,27.16999729972,35.20349174944,61.07053655224,43.16012468648,38.0459597522,35.62601833486,30.296304460348,31.52756245142,27.92947591674,29.22410423058,47.54961348226,40.23863489848,39.78951044122,38.10365461752,29.9934800877,32.19733781688,30.29783136789,42.2424478424,37.21791331988,42.21119393996,22.27755167376,33.2544131162,32.29856549164,30.50333399662,38.8851245615001,34.0145864584,31.88400613662,35.41869027054,41.13670602788,31.64813507678,49.3531934074,38.9560411222,42.9086386637,34.64446781762,35.705797335574,50.54312539926,48.7406041184,46.6530447764,35.1501331516,30.36695668642,34.96197142038,41.29770889368,50.7120480006601,43.0460101000001,31.8469472544,32.6848863984,57.12188694292,33.0314343388,47.45470379758,34.90067662278,31.73215452486,34.86045358436,25.988958815,37.16824426236,29.02350871854,37.2686206076,32.03279551324,34.06223301992,36.06758814458,35.0756956074,42.5031405368,33.59422585654,47.5593173395,36.47057176609,27.4220561919,38.9596923862,34.64886024018,31.42806401987,32.05829547788,30.5537118548,48.17851749186,49.47056313954,46.7987689284,35.2564097353399,39.80178102464,44.75607297502,21.911305614428,37.34927580072
21.783983014,17.721165276,33.975423725,28.6650908922,27.135159102,25.03896068,37.6058256918,25.293462627,57.8501382614,46.534315965,42.94814993226,1e+08,25.8347647518,47.345940409,41.5937980226,37.4401875606,51.8309449976,44.91814373249,23.2053171328,59.7733094325999,46.7134115427799,42.7728270729999,36.8273661987999,15.0811558138,35.3858335876,52.2335864732,38.6158538683999,23.1418661072,41.664392908,42.047416848,28.71952395586,58.9204157834,38.1246930234,24.2469208088,30.0616035763,36.6061440441,35.1038280123,22.8665232462,53.1406240642999,47.4794467013001,38.9761955662,39.9822530048,47.33408699816,45.1394235539999,24.8650641952,37.346660187,37.8053408202,45.714684148,35.1783134365999,36.1936263172999,33.6011473964,31.109897621,41.667132327467,39.71317438148,30.9296622101,49.8454952837,37.8595197090599,39.0420891538,29.3293300498,32.9990854471,19.3715720096,27.175906625,26.2094021549,40.1269340119999,40.0849207358,36.2409825763,43.1877684015,34.660200691,38.4158229699999,32.0397087944,32.928512452,30.8310882888,53.4357973077999,35.010707861,31.0845142328,24.235835943,25.9948416724,37.3096045574,32.7069516711,44.139908548,25.775916885,43.6378807108,25.189521614,36.6806870388001,30.24542301,52.3602344299799,34.0261823308,51.1787048207999,23.658278221,37.4576917673999,52.6935459067,45.238843098,38.6472107855999,43.4858558116,24.9375082437999,36.1209851224,34.0272462337999,20.5087579472,23.40490875952,35.994334663,36.1186556992,33.9636301798,27.4841051163,27.1905840894,37.5954818744,30.1061870606,24.2472147398,27.7346925212,33.453801379,19.6023075354,37.4875155778,44.4514323461,77.89752241489,20.3137862212,29.8627376221,20.2697708356,29.2805224982,17.469745749,24.2122064174,36.1253605024,50.1697574518,31.8348179218,23.0010647876,33.4634221304,62.9725295036,46.8566607712,16.6176379348,21.1416043109,41.5478718602,30.694741283,25.1922133438,32.7448381807,20.9341224118,44.6304661141,38.608254065,24.3149041097,25.7295882502,23.4881084378,41.24317406655,20.7451778974,32.2613141882,39.7433039302,23.652877593,28.2086166818,38.296599103,31.6528901288,36.8616630034,19.162958628,27.9008513504,39.3746100895,39.4080619858,49.841210754,23.3064487656,20.8294994914,47.8227702976,27.2951563106,33.23331553427,19.9545323522,50.0230918589999,24.2029336672,35.2432917084,31.174694176,38.17128794,37.8660300655,19.3462686492,27.0255815798,31.5460164126,20.3830990742,50.7110269056,31.4357633599,36.6542870314,37.5646164781,31.1788301563999,35.4485878336,22.3566475446,26.46580917135,28.2752583801,20.4564226403,34.30948835943,35.6518504968,35.7240354284,16.6431871068,34.4745760158,31.3598509308,27.9043309545,17.991651907,32.5960509279,20.171792874,21.2972347214,26.61693297023,29.7010031024,41.6221195557,22.0481369954,44.7621640332,23.4322929232,34.5251184228,37.0175710464,24.93113235422,34.7217315189,30.4057839712
24.0885222552,25.21927184608,45.66408158956,30.1568362446,24.1003997026,35.9223907565999,33.9756853817199,25.54157454932,58.3308946787799,43.11182852488,40.97731549248,25.8347647518,1e+08,38.8969310688799,44.2913616362,31.57174081592,44.29535806088,42.5221992332099,30.8249149370799,45.5820964410001,43.15701006596,49.59462080848,37.2187209078799,27.21597280888,31.4994346557999,46.40544464168,41.46677142168,32.0184351414,50.6597157664801,39.47853557088,32.083849719004,54.21521804388,44.2401821098799,22.11808094628,23.6550061482,27.9439307176999,38.9372716676999,24.33035520024,47.55884470338,46.3274395503,36.8756928266,42.0867277892,45.02824741532,39.88900852488,24.55637129608,43.15564007688,38.3125289811999,31.08202233692,28.56027310368,29.77932569898,41.05801001708,32.8156148646,45.048779536067,33.1534706222,36.8658510909799,45.70039063328,27.34089856558,39.51938164088,41.8923445418,38.8972974745,25.1332490408801,44.44980771568,24.73706646038,44.0749917542799,40.25157667428,33.96970246268,29.59289611558,31.0803261336,39.9785204646,41.9205465552799,32.41269792988,32.9831653406,42.65152472048,33.02829544288,32.4799524968,27.9369698725799,22.02087386988,29.02065848188,34.48098241398,41.5607590260799,28.96523956488,43.9324733949599,27.18080391028,37.33748971,26.7234765524,47.9190524325199,37.7244241005999,40.6815715394799,29.88625397168,19.87207913852,45.10777282378,43.6126862070798,43.4058474304,33.64054508348,19.53235255328,36.61488863728,39.39968043168,32.00084923968,26.62122705048,30.45346372568,34.92469340212,34.71747899464,35.59488119426,21.411369636,46.726817117,31.33393032084,31.65559542956,27.55963663972,29.73938526668,28.65286063492,34.31536668492,37.92407609692,52.04867086697,30.51558263992,44.58438568372,28.88455960164,30.35958131588,22.19969978292,15.72291333824,35.48806938452,33.30518034112,32.48442990764,24.24569280796,33.89327194108,62.1776999296401,43.31205195788,23.85732644764,24.56330644538,38.68992011068,30.3557459816,25.39579010648,31.85559471402,31.50159230768,35.63078747158,36.64711491032,32.76456739238,27.33988804316,22.5175249917199,25.60907299587,30.37145287044,36.06756282504,35.18877844104,21.81991608488,29.63260095212,33.75794600292,30.55053693028,37.51974774728,31.67260258068,29.37194876924,36.82449001138,37.18254133048,41.51248178288,35.13359693652,30.3711177556,37.08726597428,32.47288715732,31.46195453647,31.13754691836,34.26508523404,30.89704591384,30.4200949854,32.36459424392,39.21069386328,41.6992517745,33.7082740696,32.64619793188,33.8155651474,24.58133959688,52.88077491728,35.05283124038,41.48049091724,34.79756659542,23.96270753772,35.28712191412,25.38565981956,28.29573457554,22.34205660622,28.9108342556,35.88453393375,37.05774037872,33.06314850472,22.11046704604,30.23546358812,36.14222920684,33.19254285902,25.63248360874,34.14082449142,31.21566595748,21.37953019968,32.05578744695,23.1871744456,30.7747398815,31.20027126284,45.83547901572,32.86331436424,32.54363576372,34.33166379852,33.0283137313,30.37633478518,35.4153772004
42.060061074,52.6276185911999,48.7897466748,35.5587516484,28.9702635244,49.6276635398,56.5381063639999,48.9355892528799,34.18024890248,68.0182647688,29.463261792472,47.345940409,38.8969310688799,1e+08,56.177715409,40.3009118218,91.803509938,32.141494515348,54.857906438,32.94062718492,56.3235611259199,63.8379426792,40.6959548633999,41.548118258,45.3413391418,23.1555248318,38.4831406288,57.970885067,83.4868491136,24.4343452834,38.68082555906,61.6000433966,30.1302100906,28.6946672954,23.4115053879,19.30810733048,32.5151765885,36.13845182504,71.5840535498999,39.2898760508999,26.1685407247599,30.4397664618,34.32947798544,62.8750583639999,47.5859781312,27.6411479042,27.0866384002,51.1254569445999,34.6296959167199,41.6394937178999,29.2473808924,25.2368344711999,33.9697819900669,23.689125098,26.9626763197,33.8069187274,38.0348140194,21.8180933266,43.5065354836,26.8065316481999,38.3741234533999,49.1568582204,28.2276480975,33.8273735936,22.4013962026,25.90584163346,34.99261562106,21.6632925932,26.237977123,28.5188915929999,22.0743735928,25.2686294320399,33.271835319,33.4834638902,26.756080678,32.46007693472,26.659164985,31.8129065069999,24.9366084494,25.8204258909999,55.279724825,35.90380123756,24.5136454852,30.740796071,33.2626721114,35.6736333741999,29.3734926508,31.8868637498,55.5747067732,42.870080755,43.95297916996,30.8969459219999,32.2005691062,24.1461208056,28.7087889374,28.227814079,37.4198293801999,46.9939792802,27.7475732616,25.44288709552,32.578597872,27.3632715782,58.1287100921,27.1654829396,57.1343877198,28.5156660126,45.18524494,27.984599228,23.1989121586,46.828841902,25.9860905618,53.8242184626999,73.59152963656,49.5149362934,47.0278033144,49.842304044,26.4497626667,36.092037986,24.6151799528,34.7297845896,25.6158167518,32.1571972318,28.4241007622,31.0498121312,60.8632670266,51.0893452134,42.4483197102,42.6012471907,23.8181402468,26.8979858234,24.167607054,33.3378002663,47.1587124502,32.3336168983,50.8325908016,37.1238612104,27.0502210668,30.9155817368,23.2230665119,41.994286717,34.2266155850001,67.2587030455999,22.182346812,28.6023877446,30.4689116202,29.2811260274,33.7189056734,34.703488795,30.7869977678,35.9543416086,27.8168309844,25.9778668514,40.960498574,43.922888285,56.1238750692,24.9492204532,28.20615249753,52.158671986,64.7144236432,42.6611357862,33.2613627308,32.547444653,34.377673073,45.1067242244,58.3477624724,45.3787838838,30.448133109,32.909591333,44.942780686,28.9010806457,32.1996165102,32.8222131977,22.9575953122,23.7879684036,24.297260336,35.4612463989,23.9530666435,37.5268781173,30.23227992174,30.4422277782,25.4538581726,36.982723808,58.815166216,34.1707093632,43.1589859987,31.36423096753,24.6223639214,43.0983131612,35.0507612734,32.96810491862,23.4337790994,30.2653795268,48.571666233,41.200021139,40.8642874494,28.164866559,28.1244388204,37.23939343502,19.8990688747,32.720130722
44.4704396158,40.310268781,35.702325811,42.7340958874,45.5763135652,37.0636054521999,38.288260281,42.01247736092,64.7251916366999,28.96534323,58.1920757596399,41.5937980226,44.2913616362,56.177715409,1e+08,43.063390339,56.715121897,51.588137162882,40.2257254146,46.8422651218,53.56865004818,46.8249073646,38.4619866086,46.4901022076,34.1373636246,50.4729791153999,39.0935819065999,37.9628552232,53.7679008386001,62.2117468349999,42.587909682824,54.9736312272,45.5602038138,56.0008038541999,57.1483052519001,50.4884746735,44.3509050189,53.1095176118,51.15177869486,56.5762096254,59.5719863109999,51.979626253,56.60877205,65.869114003,51.444126649,58.0266294648001,45.07833566204,49.7565476334,46.248241195,56.7410452727199,52.654995428,53.4009561156,53.474648755667,52.6627748619,50.2283527701,54.6714321560999,50.2782368075999,56.0459112259999,43.578731083,47.8607265429001,42.353042888,44.6137374758,53.8622595778999,58.1615354482,52.9478475948,46.2003331094,46.7925986093,49.1046613269999,49.1268553046,45.2687818848,47.2590128279999,50.0300666238,56.831300969,37.915412788,54.936577777,50.5764164077,55.2983014564001,50.48463051,49.1563159711,51.8913766334,36.58650724,51.00737518128,57.5320020052001,54.3259609546,50.4152885884001,61.7046557576,51.4191760454,61.170376526,37.776013097,47.3486407108,54.6302616367,50.6886619442,52.9146383590001,45.2545396242,48.3520443883999,52.5591502924,35.711420903,44.064124968,61.657931742,61.1061034115999,48.7515376906,48.6103521862,33.6040937871,41.3356546728,23.9710538704,44.2116037258,34.7511281288,42.623119959,44.9811216102,35.3722008616,49.3258412818,43.0969209689,84.15098049969,31.0763037782,31.1638552509,34.570833206,45.1752196034,37.4716918882,38.6430737372,39.2380923416,53.3363744516,46.7300612458,44.7779348004,51.409754557,55.902909939,48.3764787041999,33.224912436,40.2831992801,43.9988649362,42.5148630222,41.3528408474,44.9818130003,37.5554262332,47.7906698621,37.3934471712,35.3365490455,42.3325205314,35.470534748,48.51979358075,36.7366389488,46.8206735138,53.262519001,39.0097529648,43.6319944364,46.7615772336,45.804794557,49.148021324,34.9537295158,41.2187907692,43.5942323229,49.4322131162,43.2687997662,41.8922990134,36.457535753,54.6651376548,43.8270390188,50.02835388837,34.4120007852,59.7381068908,37.9103798942,43.9891064934,44.7315979436,57.4210724366,23.8103882325,33.3743994532,35.3522170238,50.5379613624,47.07828122,57.2649917366,43.5969298123,47.8030358854,48.0958559963,40.6866102024,46.457013238,41.9714069412,38.10315534315,39.5265059557,39.7856296463,46.47928945203,48.5117531174,44.5456997428,36.5352581538,38.4234864862,46.1538984024,33.6618949501,41.92699259913,41.5946979991,36.4636497072,38.8591246664,42.85929194643,39.9518878294,43.1527755345,35.55759445,54.8959007076,32.3571151114,44.5343884434,52.7740282188,34.63196884302,40.8164961399,40.805032435
37.5969465668,41.122104084,37.4773307366,36.192404012,33.0420023156,36.3242293723999,37.4376386854,37.357176953,47.6868559179199,60.8963243394,38.833324026,37.4401875606,31.57174081592,40.3009118218,43.063390339,1e+08,64.7785132379999,39.2275722634621,41.233356725,34.8596787683,47.6113139849999,63.6942700384,27.5617350868,36.732351432,35.751889704,42.0516298737999,31.3823280708,42.5912314103999,65.6471624111999,37.6340730267,34.54012574548,58.2039380494,35.4974516544,33.399102525,36.4809809643999,29.2645025179,36.2389813653,39.6113969948,46.9438558705999,35.7813619481,39.29791426556,31.9387154072,36.57641136324,56.6519075896,35.26039473,38.0841753812,33.0051886978,35.7389856828,27.9233992936,37.22764211608,32.4900587992,36.8288291736,35.0584328332669,34.72840582086,31.8928325449,40.9967328119999,37.22551803882,38.1262282422,44.8025868612,31.5982700995,34.673503921,55.7462809856001,31.5585948577,39.24773674,38.9800653908,31.22625206474,27.9120835137,34.2144621815999,32.7555994262,30.9267940931999,35.9273808184,31.603845006,39.731728352,39.387314074,34.4953314446,37.1331237402001,33.94598914,33.8916314751999,35.4615956783,37.000689451,38.295128188,31.24977972368,37.5649711727999,42.5176418392,27.0157353692,39.22832705368,32.472438843,47.8743105768,40.7284560552,29.255750334,49.5813144206999,34.2419515638,31.6380666399999,43.1725719649999,39.3623811283999,40.1943270904,33.8983942688,41.3673006358,36.46791452172,49.06558105736,33.16098811,33.5493059798,39.4816773827,25.0948009782,45.6634149602,35.4556625594,32.1257203324,26.0901575008,29.564355255,33.8067629186,32.7021057066,41.9311411625,69.33896975749,43.5547691756001,54.7784205043,26.2882955044,33.4548114054,23.1087430276,23.5256583994,39.9169443664,25.7592011714,31.125246616,31.5399443778,33.214062142,62.1653189758,46.5435951974,30.8773704494,25.2834657837,39.1719509218,33.1569678522,29.9561642262,34.7787023333,33.8793865436,35.1742351247,40.4872536166,29.8433301989,28.3608284216,20.5286666076,23.42109738395,28.490500587,32.926062002,47.1520879076,18.9623822182,28.7374257426,35.6874806232,31.1546321352,43.248276202,33.7893150732,25.1511449206,47.2702639549,36.8694623306,36.7768416255999,40.5752835446,33.649203846,44.2612215956,28.5828412716,32.06931363337,37.3163161672001,50.3045608186001,31.3897152564,31.7303404018,35.760592003,48.5146972841999,36.6771463416999,35.514661876,39.6720010074,37.0600849364,29.4516397474,50.507291983,31.3095677235,40.1424801704,33.6520414858999,22.9994637808,38.5862967312,30.5732854012,31.44739444815,25.8358615403,28.0918761675,31.29036458963,37.9423391224,34.4906034276,28.3916308058,34.9882972528,32.4314071302,34.7817735883,28.13658591635,32.3667288275,38.9674821754,22.5398039078,32.95273385203,25.8910286058,30.2276821221,32.6437016282,47.8518590572,36.373391429,29.8108334704,42.8180508282,30.89548923578,26.9886669223,30.9588032138
46.5816604539999,44.5660619989999,58.6101061176,55.6808026571999,67.315398459,67.8421144984,55.943608076,44.7445945837999,98.5530205435,40.309389688,60.3706156502599,51.8309449976,44.29535806088,91.803509938,56.715121897,64.7785132379999,1e+08,61.46001439389,45.6281279212,78.6296920432,40.89059054472,50.4921036439999,56.2530386329999,56.190510405,44.1473345477999,75.9244890048,57.5330332013999,44.687749448,21.636042758,69.7510067033999,55.1229684312479,45.039191387,67.432353091,47.7294492883999,52.8581063565,83.0221464001001,65.4106155433,53.195503207,52.7949206853,83.3800292903,91.2053113352,72.0258911307999,81.257139304,24.615056938,43.562457422,67.4325313392,72.2615756466,56.54539922,72.8197757207999,45.8826141830999,68.1513794102,63.7506684239999,77.764034939467,80.86867400134,68.5894269961,76.3204290095001,47.2540031129799,83.482604354,35.8929789069999,62.7010918376999,58.1794962411999,51.2275807419999,56.1967436549,76.3183584974,81.0078482850001,74.9667201592999,71.1596351777,81.0258617519999,77.9691595930001,70.509985864,71.6605325529999,62.7520631139999,80.534048996,74.795725262,62.9338384701999,49.3934308674,48.2951462669999,70.0326541939999,77.5753485895,82.5590339892,43.5117882279999,78.5205916386,51.9117388052,68.0447708022,56.946956771,81.1940369429799,68.945258511,86.4281818722,41.680741236,45.637628978,60.0013678967,73.716529606,76.179326806,53.9052026659999,39.7025762953999,72.1291418346,50.0230537329999,51.443941649,51.657343942,50.2422977398,67.4035383134,54.8224293542,39.0304311281,63.5937711985999,44.1209327752,51.9722526394,31.5783931296,54.2050812159999,68.5199627049999,55.2535078622,73.8207790774,36.1302776582,41.73066599579,34.8873338504,61.7810357289,43.8981620153999,52.7978402694,37.5107501248,44.0332897148,58.4899265426,59.0715192536,67.3891355412,43.8808605082,60.7501304542,83.6221981482001,44.8193717212,39.8159831044,39.8211154969,69.9110726914,50.1676025652,46.161548641,56.2917150617,54.17723023,70.0969130255,37.8474295882,51.5516088967,46.556882866,49.5337928976,57.55598910235,53.1539891946,61.8406893874,18.438209256,55.4681376558,60.1007954356,58.6780343894,51.1789682446,58.2904438416,35.405364514,62.9699182488,53.9558343491,70.3033763569999,70.3438944942,56.7080217258,45.7075431884,39.7158388398,67.7845964828,64.8302261286701,44.1141179192,25.689255589,60.8715372976,49.924308879,54.242250995,50.6780939536,56.7166922385,50.8393288024,44.276706906,54.836195882,41.1003064934,78.0291151575999,57.5935583641,75.593725523,61.6268202865,60.366560558,82.344886188,44.2170589248,70.66626745265,62.9331913451,44.6064098062,58.8718770972299,62.3547381098,72.5249794966,44.5214222544,37.2365138852,57.2305010762,61.1062506864,50.46187609727,63.8278820869,39.00396761,53.8086237651999,53.36580270563,64.2909556442,46.3780678159,59.0618232566001,69.7610285926,45.2351676254,72.361659608,78.8321806566,69.41808272802,59.1344911512999,53.8364664014001
43.11617395269,46.82206315349,50.4447528106819,38.96570234661,37.00202626103,47.5674777690099,46.920806116362,43.07846730557,39.285564555692,63.528705784462,20.630496869372,44.91814373249,42.5221992332099,32.141494515348,51.588137162882,39.2275722634621,61.46001439389,1e+08,43.4867330720899,41.814737257598,47.74553567151,60.0350159713899,40.902008168372,40.68007339069,43.3187517040899,30.42273637667,44.4604047996619,46.55529037309,57.84517881149,28.312978719128,36.6435538367479,39.81308289359,32.80529261651,36.83992435859,30.785436020686,32.430123208728,40.781141608498,45.3675554065299,48.5307658818421,47.6774920281101,41.81623690931,31.452629268692,46.71215144571,51.0352184458899,45.92466590629,32.429692119172,36.20404754191,43.617245778572,38.930132388488,49.34865048921,30.51371566902,29.727923674838,36.9019668479239,32.9450831043079,35.121126043256,45.7163348062919,32.73702817764,41.30833615911,41.9872136998299,29.41508450842,35.90327633861,49.85755400539,37.19095229638,44.817426178772,38.90341277291,39.4716039756079,40.133098126112,34.548581960448,37.773860620692,34.79511486281,33.732443462328,31.100947346746,48.82801540951,44.548485756132,30.542373531238,38.1500243571,36.038264961572,41.6382816011899,37.704446019032,43.3749348631079,50.79993721269,39.84423950671,36.7790332619,33.978254841292,33.345173663462,50.750920451526,28.936359604988,51.74816092491,48.51882337089,44.1742958522519,35.76237782284,41.520870031188,36.03355775451,40.9641809810599,36.36626436529,31.3149537963899,34.31120008243,48.1295551296899,36.70706004229,35.47065008031,38.653029205148,33.008228400568,45.561947042208,36.59708654395,54.213262300434,31.341932292376,39.11558814469,30.059956399544,32.317311022206,42.68913519209,39.85447109399,42.960154487328,60.409117240818,41.480109692458,50.3315058307901,41.72196962701,27.84567274119,34.53028609869,28.216796473662,35.178094026828,28.86729325622,34.063812228452,27.42780178997,36.499078628132,60.71418782002,41.749547298972,38.39905260029,36.85183320059,26.108012383768,29.836200267412,32.526333831864,31.279210331352,44.96121747029,36.621171868014,41.842892549894,32.34263720185,30.2072268543,34.120469321308,33.572093138994,41.35958012209,37.050545963762,43.21930994933,26.796817796652,35.978134528788,30.270324736028,32.515513371812,36.89225325003,32.95644778783,31.750868768268,32.979904756066,38.00138177083,28.68094852107,45.16559192219,37.007893600628,51.3110586223881,32.745557339492,36.423086165658,46.66851484769,50.96677225539,42.908155166708,33.911086883396,34.44861585143,32.71404999708,40.165923368708,48.33658522909,41.385394621308,31.640360538812,34.367295945918,55.921810359916,28.739153214992,43.09109257678,32.960621674888,33.569434687438,33.563506015628,28.39248233774,35.60324335496,32.29613952693,35.063810735382,31.725917729878,32.37137055767,37.10126192183,35.358395407308,46.022351080664,34.193354024456,41.450517342728,36.580509865138,26.925234494846,38.82344981661,35.623529912158,30.991557435142,35.642583116856,33.320619874062,44.971423914508,48.28419046863,46.44337777151,33.848799585648,37.94439082631,41.018029441448,22.561871304708,37.699314285366
23.7433409329999,15.8792050818,37.2854064769999,35.4153351086,31.4449613942,25.8962033602,46.546584085,27.6729657156,68.3151935268001,37.2198586627999,47.7663187492601,23.2053171328,30.8249149370799,54.857906438,40.2257254146,41.233356725,45.6281279212,43.4867330720899,1e+08,65.3933180721999,51.86111257472,39.55036425,39.3448740879999,23.9200561779999,28.4967995342,55.9125746898001,38.6930343368,24.7561861296,43.8484012531998,51.0359540196999,30.67017960232,56.8407560138,40.446872482,27.9020225888,32.0583940297,42.7311683059,42.1190349728999,32.1421415982,54.4414673458999,49.6860734653,51.5796192422,39.143711522,47.2639508131599,49.5124450731999,28.7583878082,41.6576621012,39.6572907636,43.8334888792,42.2818739678,31.60502064212,36.9833303379999,34.274233637,43.1293026114669,47.99043852028,32.6977617418999,52.8782778033,41.9436883573,48.1755510607999,31.46067118,32.8306979087,23.6485134602,33.9599573216,26.6013690953,47.1416565334,48.7634234706,49.7185460011,43.8748605278999,45.755079253,43.011995064,38.5560294034,38.824828016,28.8206255266,52.061357142,38.0111029041999,31.155634174,29.1876689364,26.510151935,40.4102393922,43.3636271867,50.4736974032,28.5840792409999,44.461805304,28.584442566,39.9046843996,29.997246933,52.7751162551799,35.333186193,55.5178685404,31.1680494374,39.0644803133999,48.9775415653,48.1895668136,42.8219642409999,47.8688620262,28.1288909618,42.6369369778,34.080436869,33.8035121649999,32.5616048204,34.9543898848,38.9998542322,36.2544525798,26.4066245725,33.3361318376,37.2200637592,33.7473985832,22.5612174068,30.2246411776,39.656856736,19.8947363344,44.4984068466,41.7979628995,76.3611222876901,22.3036928664,27.8613551747,22.2172448828,31.6210117958,23.1881472368,26.8710976766,41.0444682512,50.987724235,35.0063826962,25.5108584468,36.955838506,64.1515731266,46.6263883484,17.3093069518,22.3443573895,50.2015587698,27.499164551,25.9191564512,34.3156704117,20.0512384842,43.4287442275,38.9289102618,26.7383039295,21.2082572184,26.235255547,48.35520540175,24.9053095034,33.0845406842,39.3270494864,30.3173161796,31.993888565,35.4013875586,31.3499809952,37.5336865402,25.6610951758,29.1840509202,45.0937754797,41.2248858164,55.9859837618,24.2781680722,21.713739718,50.4825367356,29.5073019454,36.14600753537,19.5426238882,48.0736882688,22.7714710038,47.5629890454,34.5042676378,39.9708112418,40.3609476507,16.4259828732,22.5124497314,34.250375134,21.0099095162,52.3521978818,29.4007634945,38.8807845442,32.5873546201,37.2850157542,40.8163586138,25.3766447914,30.3156832285,32.6672998491,23.4693504423,33.57002855063,35.3810245,35.3388819392,20.6473756356,34.1654801516,33.846503794,26.5094457119,22.70775811213,35.2004778515,19.0891477654,25.6175766256,28.65918045343,39.2445254778,50.3738791361,24.9127336294,46.5252563368,24.0421510494,37.2033208904,44.5094365564,28.1905515881,37.9832543505,37.7439544742
60.1529621014,62.0608607184,45.9808503924,36.262625241,38.4318026839599,43.4679465252,47.9938014712,57.8144879220399,41.6437047654599,51.5703242966,35.00617690882,59.7733094325999,45.5820964410001,32.94062718492,46.8422651218,34.8596787683,78.6296920432,41.814737257598,65.3933180721999,1e+08,50.55299279404,63.7902042462,39.1156426554,55.2189397894,43.4350454464,40.2973261025,30.1261818684,65.5449742944,78.28185080964,29.13002817234,38.221010698248,55.4363122548,38.6192589942,46.3936622783999,48.5630703012,40.0177939223,37.00498846802,46.9010717208,60.5935413265999,38.3160668573,37.60063207242,42.0801410033599,39.5808574530801,60.7674303692,54.8749008283999,41.86990844996,38.79994676692,45.6258604318,35.7127122915,46.8527706792,47.1913814180001,51.6904133156399,42.913493252747,36.1289780448,45.8342904390799,30.9890928229599,43.8254997817199,32.81595087492,53.2189021788,46.5725820540999,43.3876180324,60.111184698,50.809376099,42.96851545156,40.17794660672,32.2970320409,30.33496575044,37.62613759696,41.2416444070799,34.98351333516,37.1362780441999,45.1876750798999,32.16182155328,32.1805296136,52.03568116144,44.4491112461,49.0539050316,35.2385854888,38.2933933062799,25.2114613926,54.1567199728001,41.58111384696,48.2132387512,47.4115096372999,52.4599522292,39.21664175496,46.99093732226,34.73057570128,54.5838482554,40.8571445652,44.9118446895,30.98335507184,38.30264797728,36.22081650268,47.635571868,35.63133518756,38.9227969597599,56.7880538835999,48.3688574568,50.73732465312,27.8622527333201,38.13572544924,57.0697671836,24.81643374716,50.5114890170001,29.67852683106,53.4167613212,24.64849533022,25.82550638426,41.5482393616,27.97328264222,49.67658496102,74.6967791052799,44.01393656836,53.59271661376,41.9885807854,32.70816155078,38.772468004,29.04849474868,40.17172632708,28.37241261842,30.56472279572,36.18380335688,30.5706998702,60.9241576395,51.68254948824,48.2590079202,42.4029961985,29.58495331708,35.95085003266,30.96946999642,32.83288751974,41.95617808686,34.14058473552,45.74034334404,37.40858104162,34.5810291775,26.7339796366,28.24041620567,37.8260564664601,29.63291438214,64.2881220356,25.81014556386,30.0752001222,37.539311224,30.66727087122,35.5614946047,42.0272430254,26.29421731358,43.38024304448,28.53970953704,29.35344240724,53.21782035812,44.9605347134,53.5532298786,29.9136342912,29.64980462343,53.518399525,63.01343290164,43.4264651292,36.56257311664,38.1040182506,50.01985752078,38.16595747318,57.3188908612,52.1155249544,35.0038919418,42.1821345763999,43.46092404492,33.29340631404,30.5622142569,32.63839294628,24.4689304722,30.0813303083,36.54308324136,27.99646747607,27.13147235572,41.07815298576,33.81751365524,37.08867500856,27.05853834596,42.021076102,46.4922085511999,31.77322244378,41.5271562873,41.98801938647,28.84522062442,51.4919869151999,29.8729423982,32.96111783936,23.73619148828,36.60469100394,42.6650661468,42.88285436934,50.0010198352,25.97978052696,31.75669294432,36.334749978,25.92644213054,31.26657151562
46.1173307192,44.64639679378,47.9655951488,46.9996195817999,48.9255370327199,54.8072015556599,33.2077600078,47.5160658299999,59.1547259498999,41.76663731472,43.14486082144,46.7134115427799,43.15701006596,56.3235611259199,53.56865004818,47.6113139849999,40.89059054472,47.74553567151,51.86111257472,50.55299279404,1e+08,50.1495794648,55.1786508558,48.8394158188,46.84031781112,54.2176388565199,39.68439123992,47.9972590898,37.8819652948,42.02243624982,42.59195193728,52.0473609566,50.4641764015,40.47198315432,50.41658089822,51.15092022388,44.35773166582,43.8395399144,28.09237855784,63.11006211582,59.7398420750199,46.739724704,58.97309529626,28.66681920372,39.3988479397,41.43044245592,44.9257185051,35.46295678492,48.62857423602,38.411357185,48.3304685690999,50.75763006282,56.265976711087,49.73499238606,47.5550378182,50.93572009092,44.2378710011799,48.2391900891199,45.6184609994,47.6284951652,44.3230768815999,48.4028379894001,43.7385015098,53.1865284615199,49.9861465422999,50.0885532974201,53.7773857823,51.5507722082199,49.3367653082999,40.3478060665199,42.7869601067199,45.16695991318,59.13037365152,60.21368357298,45.38877735242,36.36034010158,36.87829201572,47.15162860272,42.24617835822,49.2986519113599,45.3077551408,53.29484356758,41.42774565592,47.18923645602,42.85747187062,63.61132854334,44.8934332696199,59.7393087119201,42.2586908785999,44.2130486767199,39.2603517172199,52.21249329552,49.1323133550199,46.3346645937199,37.83369030532,45.67311306272,47.60418795372,44.6121570240001,35.038061663,53.8549131167399,43.92487856186,41.05578934506,37.26250761448,41.05218083886,41.8207649178601,36.85928103686,38.95867089248,36.63705308766,44.39023885028,43.37019949462,46.88960442824,24.84936130176,46.7995997606501,44.56917586304,60.5174661216599,39.05503292042,38.28361666008,31.41337404986,31.56954771128,38.10859287672,41.34568133352,43.83298784728,37.98807753948,42.32944912288,56.21271144472,34.97309409726,41.14529081122,32.85579896516,50.77708482586,41.31947366732,38.36553592572,42.03736828296,46.18928105886,48.20047740016,20.94507632024,46.8289587545,41.39827735066,34.55811131272,41.65614549433,43.13087520748,40.67070095706,34.55149364124,36.50266764228,40.32167630986,44.87073642286,39.10815650172,42.99372046372,38.30165696266,40.82154314288,43.08000974378,47.79468965166,47.07509202832,47.20005155566,40.84675500914,25.08599685614,42.02718466646,41.84934964639,45.46432116148,24.49658192886,44.02283439944,31.14004571686,44.4078837099,47.96997956266,48.02903723942,51.80799357602,47.5264283774601,45.20595542966,32.89099381728,59.60583221928,41.00289223858,46.37929090366,43.96157587198,39.99865318572,52.38595635546,41.70599289426,47.8476434126901,41.10612851376,39.33678725492,40.32524360783,45.62662737072,45.28938625186,33.44579491534,21.04171820204,38.52458094946,52.77327279854,37.15423110815,47.41520123696,42.21422868984,38.75066739586,39.33940017083,40.10515006246,34.82752943002,49.70275391962,50.22710530566,46.86628616286,42.94039892586,52.78638465172,54.5139510801,39.59200708658,42.95097674206
31.49931014,38.1976899448,38.9152475772,36.3481750144,47.2758811874,41.3216658782,42.80981942,33.40335271048,72.9643909212599,42.697610629,64.96606272626,42.7728270729999,49.59462080848,63.8379426792,46.8249073646,63.6942700384,50.4921036439999,60.0350159713899,39.55036425,63.7902042462,50.1495794648,1e+08,55.936234948,38.434786352,35.8784711095999,65.54282944216,52.3587868238,28.7257966659999,41.913668342,71.0293798974,33.93341483092,54.5607124266,54.289416641,43.615307374,50.8962317441999,54.2173206732601,45.1731519972,41.6097249336,57.4760292191,57.87409885704,55.9292040236,53.8688220617999,54.2304997735999,43.418789784,43.209862704,56.1668610184,53.32405522028,49.3004342153999,56.0348432508,52.4532917129,62.2226999430001,56.2180102275999,58.142220854733,52.0179426975799,58.3587201225,56.7083476303,39.69431605506,51.6102817833999,27.4268766768,57.8246935205001,43.9606746976,24.0436781336,52.9538689685,52.0822197434,53.1389686125999,64.4857867758,47.3105082541,58.613007597,50.3812305194,52.9889179442,49.0667458234,55.66280564328,54.01459759,52.5388656572,53.4449634797999,45.8473305285599,44.924233364,50.6931799339999,49.3631174292999,59.69152648876,32.682403926,54.2047444733999,44.5764233116,55.422648531,51.5295841454,61.3349310293599,54.8619417446,51.0380323984,36.3136093239999,43.574621204,66.5471238605,62.958546146,56.3390549675999,48.1663554344,40.929649175,47.6987588354,48.8218303102,29.115485526,50.8292904214,46.29890139604,45.926791364,45.1625913924,24.0066800299,44.300707719,37.072396098,36.6627675722,24.264526644,45.50003728,40.991952587,39.646662756,46.109239323,43.5118498387,76.35539003491,28.983367516,35.2782753474,37.677436934,44.4136175138,40.101466524,42.951300016,45.987284337,64.1598500128,47.114402146,42.116258152,45.9600408566,63.097157087,54.1576439484001,29.512904719,39.2637809205,36.650552487,43.3277300746,44.143908105,43.4835553361,37.835910431,48.1912010575001,40.941085577,36.5088099985,40.513964832,41.742808598,59.77569547805,39.083682074,42.8809817604,41.330124538,44.130645216,45.949624733,43.733742635,45.181541365,43.1323465699999,21.788746777,50.3258157946,46.9696090185,38.884127811,64.1738792846,25.9799167608,35.398564495,46.9810223869999,45.2575779056,46.14812408333,32.021162205,46.621184212,40.7738281882,45.992941771,41.985613099,41.140506346,36.8405279021,36.7719933004,33.2007647608,43.080163884,40.601411228,45.810799194,45.0153858953,38.266321151,41.4094558877,46.149449152,45.7072907066,42.9763534636,47.6049326899,45.0861174779,32.4113537745,44.88962784697,44.214376297,44.4240922306,34.110934262,40.480169224,48.7878574532,36.1907361375,40.63781722165,37.3095840121,22.5649266132,42.34862678,43.03711181117,44.9315040796,49.7573080657,37.425943152,43.178236784,19.443289258,43.33213124,43.765826473,40.38696620182,47.2186498003,35.7372479672
42.93929084,47.2383205529999,44.5335561161999,26.5254988142,35.447069073,30.525125858,40.948677079,39.5953048709999,40.5839537259999,46.775585871,39.4369351175,36.8273661987999,37.2187209078799,40.6959548633999,38.4619866086,27.5617350868,56.2530386329999,40.902008168372,39.3448740879999,39.1156426554,55.1786508558,55.936234948,1e+08,33.235131737,33.4223087628,41.6711378448,43.4787514064,39.3717852809999,56.4415040149999,32.240672352,32.7463129427199,44.4406801164,33.989899106,32.3948319022,30.7547104661,32.4968200839,37.9625365501,38.0229471667999,49.1556901418999,29.1516571367,39.966079345,28.9201113726,31.67902566884,48.4716056023999,35.282544725,35.1172635124,33.6749201375999,43.0986557533999,35.4246278078,40.7199902839,33.0602894346,30.4001454458,26.170286072467,35.1156545156,30.3661511199,30.6618514298,39.4864018528999,37.1015349372,34.076669064,31.2805261875,34.9303681557999,51.899458525,32.2178350921999,34.5181203216,41.1406581095999,32.805034202,29.8589697305,34.7790060642,35.772643265,29.2339082488,41.1738440288,29.71110634172,31.5594178602,23.3370005604,34.1078027422,35.28893284212,35.4568833329999,40.252930469,40.1919022403,34.4583457526,32.896171777,27.57271471656,34.6564847193999,38.388087323,29.7474808428,30.246662761308,29.9245363428,39.6142509844,38.921658322,39.5818070614001,42.3310035069,27.536340006,28.6932178472,47.0356999477999,37.2860106485999,35.5992311094,28.048843319,37.5334941751999,37.82995646712,33.8601327654,28.1389194854,32.0909571444,31.8860014801,27.5902378983999,39.9600380854,29.095595195,25.1481341852,28.7041662374,30.457867815,32.6961373904,30.7196201564,41.4400153247,63.6185028886899,33.473842527,46.0745183941,26.9230332654,24.8035726798,23.859873727,25.5439214694,40.4379977866,30.7276527704,27.6431352082,27.2980816406,30.6215360072,60.3882669755999,41.516251891,26.9862021882,26.9682579803,33.0460329632,28.2466241848,27.1775690566,27.3802960713,30.5702739014,37.5250274883,42.74843692,27.7940031143,22.915862192,19.49833961,26.87182626095,25.9203156664,28.099986229,43.6086691894,23.7026143714,30.6635191384,31.9618341132,29.4317794216,33.1317433092,23.917984107,27.1594926098,39.2012937357,31.2000275956,37.2847597994,36.9387684484,33.5534669744,47.1706328854,25.695434807,31.13724212357,35.1757170958,45.986110145,31.3653555824,41.1119672346,25.4694884612,33.0097317548,32.1659709599,31.2476475336,30.4044574166,26.1373682432,27.571317235,41.079184731,28.2073455527,34.578842582,29.8777879813,22.9144374944,34.6639792524,24.872362091,35.5197685913499,27.9128487943,25.7873412799,28.46194419883,29.2453494296,31.8438006674,28.632421396,39.0880942768,29.1840986774,30.7872518891,29.49882298133,23.6599866491,29.8507319156,22.4005560246,27.60576829943,32.016275713,38.3958973191,29.7895584474,37.6555918122,27.2977664266,29.082327385,32.358758858,31.11191746818,22.5956585723,22.63545196
22.0399967658,20.9366676146,37.415046211,26.7930628472,26.5505098458,25.067389694,36.2196239,24.26844852884,57.4710096896,47.773210482,42.8808379538599,15.0811558138,27.21597280888,41.548118258,46.4901022076,36.732351432,56.190510405,40.68007339069,23.9200561779999,55.2189397894,48.8394158188,38.434786352,33.235131737,1e+08,34.4426272472,49.5027042453999,41.398323198,23.64809701,41.542772597,42.2662891790999,21.05630491632,57.7406124078,39.5803798454,20.5374268858,27.1034819252,28.7586227421,32.0265760655,21.5640531738,50.4738836359,47.1552656935,38.3364162172,34.327970621,45.82542532536,49.5881252045999,22.4739907246,37.0924874816,34.2396577776,43.3865897904,30.8239290868,38.6411525521,33.461412818,28.264498102,40.675699120467,37.25858180048,29.2965774269,48.0936771460998,36.5274504957,39.68852777,26.8823194908,29.5455587497,20.5706836844,30.2387925656,23.9751401753,41.8905096054,40.3787286856,36.8577131316999,37.7734251287,32.07218127,39.8765624942,32.9189532356,31.1562724562,27.6511807556,51.4454188872,32.4523164062,26.915285476,26.69640420966,22.7758928026,30.9167289146,35.8519344753,44.8197156362,22.210165161,40.595644322,23.9007382362,32.9096850406,26.4581727514,49.8039057979799,29.977147276,51.1913111485999,23.4535467506,33.3584374516,49.3089535460999,44.0220815038,36.887863109,39.6774576365999,23.3187853888,33.999581381,35.615118907,16.860395534,22.79733210768,33.43026282,34.0042867424,36.9896876058,26.0166467795,27.8911644812,41.731042657,28.5965005006,21.5177094718,24.3813999962,31.4643726674,19.9217462002,36.5682791586,42.3241974451,83.13468795169,22.0789801014,27.5297300943,20.4626708224,30.206098025,19.4169075634,21.6172161796,37.056497334,46.873254855,35.76984601,23.516973297,32.5562030666,63.9524505504,48.0908206158,16.8979266922,20.8140107581,37.6135326644,30.2490166116,26.395674386,32.8218354583,21.4598414516,42.8394155889,39.4673189268,24.0042723705,23.0011523892,21.0492379654,40.28753834375,19.2738604844,33.510800352,41.6365959948,22.4752330594,29.6207037524,37.1104097174,33.5708010734,38.4848343168,18.043803488,26.881142587,42.2527319653,34.695116932,50.4848993224,25.1920355914,19.6774638562,49.5216290104,26.3140363928,32.52123602447,23.0144730782,52.8081154434,21.9753641702,40.2054394106,31.5365092084,38.3661017678,38.4034963759,20.8860826674,24.2804371486,29.5739832322,19.0431159248,51.5129909678,32.3380476925,36.7126523754,35.3514425642,29.481236072,33.3360105768,22.7024534632,29.8408144347,29.8590417375,23.7133115605,32.63685583803,37.215752037,35.643672763,19.4043170496,37.336482879,31.2636100194,24.9320198959,18.11193128913,29.4952991903,20.4041192484,24.3077899954,25.76186955523,30.010811499,43.0424005479,21.4387756796,41.7473481184,24.149302872,31.239149401,35.94768347,24.9320529887,31.3469239901,28.0808535834
24.1528796836,28.5447184756,31.4576004928,22.4997455419999,24.767105718,27.5752821144,39.9224486818,24.78384861928,68.4799723379,33.3924007384,42.6047793460599,35.3858335876,31.4994346557999,45.3413391418,34.1373636246,35.751889704,44.1473345477999,43.3187517040899,28.4967995342,43.4350454464,46.84031781112,35.8784711095999,33.4223087628,34.4426272472,1e+08,47.9160940032,31.9667854132,27.949605152,40.839041249,41.3726953883,28.314032991724,55.2960186678,36.5385149728,28.1572955426,38.1147107055,35.7620269901,37.1764226189,31.24736149584,50.8503204937,45.0560915262999,44.3838427362,37.3353606137999,41.5087569302,46.5726888089999,34.0087200624,34.6010155524,35.9971708576,42.6436780036,35.7871672946,37.89383174212,39.9909305284,39.8754948172,40.794478041467,33.43898579658,37.0958243379,38.6228505787,41.4449363121,36.2916285408,29.4121269172,36.6524487251,32.8097116252,38.0667591858,30.4004667095,42.4313234328,37.8091633388,36.7787497345999,31.2230622387,35.653396102,35.284910463,34.5262412398,30.5729736688,33.6678980416,35.6057549718,25.2945474102,38.7608350364,33.42451606246,28.6873697144,35.1798071102,34.9081407073,36.583334048,29.2334763906,42.0084920476,30.8379659512,47.3898213816,30.156437793,46.01706684578,38.1147208496,37.8444899814,29.6214509066,30.3167463578,49.6863497189,39.8748256628,39.2828087024,39.6494271214,28.8532903544,33.3931583454,25.5893061898,34.3668959856,29.5852259682,42.1570621345999,34.7358757268,30.5904611234,27.8601119789,23.9466483208,32.7975600544,28.7791414498,20.4890492906,29.635929185,28.9317154144,20.3953042988,36.2068688316,42.957144053,74.25095964139,22.9539080788,22.1628770998,22.205725054,30.2396744056,21.6210741856,20.3924275026,41.1284176276,40.091566216,35.677177896,31.0913921856,33.251790115,66.201184363,51.8695310984,20.2835032402,23.0357056266,37.7404498852,34.628489882,26.3650578744,32.5326052377,25.5827273406,40.5836105652,37.1976074324,26.7800805845,29.4787070852,21.3706065886,37.88630085655,18.8174613232,33.4020328156,37.9134638172,21.4464994634,30.9525832438,33.0384148046,31.473707386,36.1594314484,18.8779971188,32.490323974,46.5797717723,32.9590818972,49.7454546368,29.7314289522,19.769889334,49.9403915648,30.250321511,35.76407404267,22.2184207372,49.0647765212,23.1759982282,41.6497545044,34.287455078,44.1625416108,28.1713474369,27.6593744574,26.2393163996,32.7425505228,26.9251761968,46.1351523234,32.3098443979,37.1980207322,34.8949039813,25.5300806064,37.3741472798,28.661270962,25.7907119295,27.0070418265,26.3922072242,31.81228453483,36.5549079046,30.9577176716,19.417443427,36.7376113668,34.418182097,21.0830775282,24.92167290367,21.5499698929,24.9235068624,23.291858453,34.95354471903,26.0165120332,41.7747102704999,21.6756329294,43.675447394,23.7663550922,32.4556178464,39.3270550666,22.52057739402,26.7521890921,27.3827038588
49.9448265988,59.1834169319999,45.098926639,43.5114427894,40.1805491001999,50.0654930602,54.8689038277999,58.03046139088,40.5432965403599,64.9175292928,32.85400085722,52.2335864732,46.40544464168,23.1555248318,50.4729791153999,42.0516298737999,75.9244890048,30.42273637667,55.9125746898001,40.2973261025,54.2176388565199,65.54282944216,41.6711378448,49.5027042453999,47.9160940032,1e+08,46.8011220265999,62.30123135,69.16928889304,25.056005465,46.9473082878599,56.0844213812,30.1439511654,33.9979087926,31.9421817785,29.79276679044,49.0585825266999,50.54760179784,56.2537026137001,40.53234618016,34.85549386876,32.725686427,37.5384486628,52.4179998728,58.11319111,32.3347792244,34.51306667188,40.5946454536,42.5097605295199,44.3935302773,29.5164144886,31.5766635434,33.098178120267,34.2719221988,31.7626916667,39.1990577389,38.1899830314,32.50666611576,52.2051926756,28.848255519,45.7932604224,62.0578843173999,34.7930774865,38.3370158512,31.5034572998,32.89381764294,43.8072236057,25.8376670917999,31.916425395,32.86352944,31.2001911142,29.758228713,39.1887304646,42.4415824403999,33.20536313784,38.86579904152,32.301502681,44.949827399,32.9980056194,34.5550503212,63.6008680188,38.9855946928799,29.0235339792,41.8019504504,37.200690429,38.748283439968,33.76180982296,43.1560101754,62.8956204133999,54.0805353488001,36.9930292595599,29.2402871342,33.1931143584,38.4492477529999,37.5795301082,39.6210602409599,37.03755744,58.3683836658,35.6712598184,34.48327146912,39.907682293,31.71425697984,52.3161721227,38.793609037,49.9325867226,34.70344160896,46.4957667816,34.9626580076,34.3309096532,51.6808245738,34.25823066836,38.5822387417,63.42942784305,50.7078677678,56.0542627869001,55.0203325228,31.65417479206,40.7465844658,32.3377863494,35.7256075524,26.20280724816,38.680016083,34.6151234974,36.2905220554,53.802023058,38.8407698388,47.863332811,52.3388131165,31.52307072592,35.48574900364,33.045383107,36.86531111018,57.1531702648,40.0216798537,44.15991173396,40.6271405579,32.9455405862,36.1729168914,31.94254268221,46.767051685,36.9477275554,51.1063366108,29.7466534524,36.77918533916,36.66058288044,37.94678434124,38.590420984,42.3466067418,37.26832153916,33.7384663018,37.3948977426,20.37688949352,46.8165824204,50.2525694786,45.5959576348,31.11917317596,40.05504594548,57.8734132618,53.8253711738,51.298706976,36.62406761856,36.8301419938,42.3823553572,40.87450387538,61.9281653192,52.1214182776,34.3727027004,41.0444121938,45.0296338234,32.4841049299,41.13816992048,37.6426531485,32.47269831464,34.37990836296,31.8023513544,42.4595755385,37.08659890708,45.1283572183,35.21142757493,36.2902602602,37.0936151852,41.9578120088,53.8574734834,39.0773576506,49.5364909233,37.56985282613,28.64185158276,47.589684489,41.9426257486,36.93953682493,36.38142656432,32.44832636322,54.0945485774,46.49993235864,46.4561791488,34.0278601072,40.4001014677999,43.1621429090199,26.7539150021,42.345894284
41.6556890832,36.057115095,29.5878121504,36.0123572234,31.696483205,40.03733884,42.560374707,37.27325535208,44.7422279307,45.402039303,39.524187647,38.6158538683999,41.46677142168,38.4831406288,39.0935819065999,31.3823280708,57.5330332013999,44.4604047996619,38.6930343368,30.1261818684,39.68439123992,52.3587868238,43.4787514064,41.398323198,31.9667854132,46.8011220265999,1e+08,41.4224530837999,58.8994711989999,40.2192304774999,32.8405450128479,67.3914030374,33.3296259334,40.682662597,50.6625496512999,40.00404183314,26.98167985468,38.89054997964,59.96437341468,53.5431002711999,52.2610169323599,48.0895006734,50.7171146574,48.3631569858,40.3340119818,39.4931086786,35.757204478,39.135300525,31.5160923252,43.21534122048,40.4917814476,46.6739903069999,52.0293902358669,42.0126393131999,37.6275461058999,41.7076178741,47.78401020678,38.0285888834,45.3977407362,37.9141976631,34.5896015998,56.1412625272,38.5618672271,41.577431864,35.7659063364,30.8148043308,36.1029883679,38.2873480953999,36.5623769064,25.438425827,25.6182112974,37.2383101836,45.5062313964,42.797070624,46.0529809114,37.18101815566,35.5049944183999,26.6172904664,31.8006778659,35.9969029238,37.5078857992001,44.0970932264799,42.8243600089999,50.6547970197999,38.6544423954,54.5793710579039,43.9320044324,42.1348907054,30.607316381,29.0807093791999,48.4347268783,44.4437645258,45.7075322599999,28.4058412616,39.5688696755999,34.617765767,40.6867435817999,43.487569208,32.501822524,63.321936138,42.61727383,39.1871438316,40.9665188361,20.9032666812,39.8217802752,39.5476714576,32.956881863,25.931707842,34.8744716846,29.6661866294,41.5803314278,49.3804299545,73.9202442858901,35.0514503421999,36.2491660242,29.6246999358,42.4402815773999,31.5185044718,26.0276664432,38.869803656,32.6004711808,39.3246887372,38.0212023056,41.2143699412,56.3589948812,55.2885298414,32.2300076436,28.6457291208,45.185755743,42.5798247812,30.522632407,44.5018609889,33.0677462034,37.7037285369,37.0937570609999,35.7514492471,37.7504346,23.5719025928,28.79098138515,34.9783813646,40.169156035,50.6122409328,23.9992873854,35.6932688646,42.3376745912,34.6782260192,43.9875580598,33.0911010314,30.1362011656,46.4736993915,42.803616556,40.5497034628,44.5130381974,28.7775162408,47.3488678272,39.0914938816,41.80379842977,37.4813136488,59.0656167199999,31.8679178108,31.0298126094,48.5845710294,52.5665460602,39.1734084856999,38.9416290564,41.7620570904,45.5573978088,34.2425627068,57.9035571396,37.4821284019,43.4842279688,43.4420419081001,30.2376268426,42.1537967306,39.7356269238,31.4819850879,28.6116063091,33.9001645433,37.77278744483,47.0063602131999,36.9387120084,28.0551915312,35.2237538338,41.1361903288,35.1211838254999,31.33312084567,37.8603572503,36.694356141,25.7247471316,38.56632300763,22.954199639,30.9267268283,38.2478353592,54.6280900448,41.4746929456,33.043789581,48.5312908968,33.49661234442,30.8404176857,39.8733749838
20.311191918,27.2895616988,32.8785075222,29.9527245096,31.8130202494,27.9099320792,37.348265848,22.6466665112,77.3554934162,42.4270958353999,50.95745701426,23.1418661072,32.0184351414,57.970885067,37.9628552232,42.5912314103999,44.687749448,46.55529037309,24.7561861296,65.5449742944,47.9972590898,28.7257966659999,39.3717852809999,23.64809701,27.949605152,62.30123135,41.4224530837999,1e+08,34.7814592392,55.9456677469999,29.30516271486,59.575246128,48.080313249,29.8998741548,37.2848593681,45.9697784225001,41.7400869829,23.00539919,50.2133561573,58.5518625925,54.8695401712,42.733507859,57.7705255943599,47.555754336,32.0362539,42.9257182284,44.8597496726,51.970141933,46.2986922327999,43.6934474551,42.2058417744,39.777878756,51.516417505667,46.10060037248,39.8659447020999,53.9539892374999,42.5634497531,52.976278673,20.7355128324,38.7256745087,31.9745135072,28.764513031,35.0167307525,52.6734577496,53.873331321,52.2339198283,45.6192794057,50.097041333,51.334566912,43.0048077564,40.089386484,32.3464971776,59.3469964034,39.7620304539999,39.0607320894,31.1542565299599,31.626410724,46.269296078,46.3654351205,57.5564109151999,23.3828234699999,50.0803754466,33.885816037,45.1670667406,36.009922683,59.4939715919799,37.6350604056,57.8532490828,29.286702792,41.699466052,60.1882786655,55.1564276307999,48.2646883404,51.5236143056,26.6690952228,45.699440176,31.179714303,27.223117743,33.6397124124,39.9907600096,43.658320447,37.6509229776,20.9089533119,34.592383407,29.793062534,33.1077381708,16.568836356,34.237209892,39.063196385,19.208738513,46.503665365,46.5415056197,76.18827433509,18.290843086,23.0890528745,21.794813592,34.8605164542,22.773932022,30.57766783,42.971042273,49.2556256332,39.804490851,27.845244397,40.2887894104,68.807699705,54.1733971464,15.2091406982,20.4483222025,48.097092521,33.5538820416,33.615021009,39.8764809609,21.238183614,48.7015474035,37.823472885,22.0064848605,30.283233574,28.747406938,47.10963633395,22.128440173,41.2965733366,37.49235592,31.314704384,34.781251758,38.775447095,36.75024372,41.866787354,17.040416635,35.6158418814,47.0759937835,44.619287841,55.0170988146,25.5843956478,19.182739329,52.644676327,34.5845101704,41.45542212117,18.227919653,52.610769958,22.9362640882,41.095926231,34.884680179,40.179861152,32.5779939939,19.4574866064,21.9432884008,39.272372352,25.403843284,53.179158172,33.7279669757,42.530279363,41.0641382913,41.4046142,43.3543247266,29.3700084424,33.9222242597,36.0724096811,23.1094665005,37.88755281203,44.105646182,42.188123413,19.929421404,36.221710796,36.5898318764,23.1514877325,25.974644059,34.3716027309,16.4392213532,31.922610694,35.86462616883,38.2666518254,40.7859877723,21.930138424,46.09004108,20.502874324,41.353857532,45.728223879,24.44103026582,37.6384114057,32.7568076128
35.4006899179999,42.2962376906,46.2807275599999,42.3491398976,61.8477961091999,58.3317549748001,59.1156556772,37.2571938526,93.4087816651998,42.1141528708,63.05945162226,41.664392908,50.6597157664801,83.4868491136,53.7679008386001,65.6471624111999,21.636042758,57.84517881149,43.8484012531998,78.28185080964,37.8819652948,41.913668342,56.4415040149999,41.542772597,40.839041249,69.16928889304,58.8994711989999,34.7814592392,1e+08,69.1154935715,39.15383044128,53.1266062928,66.9440034590001,44.072386811,48.6535976407,75.6386907861,51.5502233449,41.9722904829999,39.2942885283,81.4334958245001,86.8231699108,59.9316565016,82.79948951336,27.05242774,40.9865760640001,57.870943842,61.8969830277999,51.93936399,71.8921237988001,41.9293280975,62.0561001592,52.8764370388,70.348700338667,72.41269632736,58.4324957940999,73.0100222108999,46.35985248222,83.1009666319999,35.1084412622,54.4299064997,51.3723644638,39.437775826,48.6569097359,76.1678833316001,76.7589834672,82.5297832214001,66.3924040097001,78.9549570757999,70.5426999856,59.6450351056,66.884367072,54.0267457821999,83.459693175,73.262780182,53.5250227016,39.51993506558,39.987524529,61.162266048,71.7913827830999,82.9712194252,41.8011651632,72.0286296221999,45.2612404696,57.1544448478,48.0387232542,79.1396970879799,58.3727451866,84.8950494230001,33.0544861268,48.958468286,57.0724107271,77.3204287228001,69.2267210636,55.8601416019999,37.2606253064,64.7201600556,44.8548094126,36.3404769927999,44.3755833692,54.2257775298,63.6661178030001,48.9248595446,34.0260945227,54.8925416381999,46.351476568,47.434430452,29.216756744,47.7468944332,62.117835629,49.2603035494,66.279705273,32.9336586939,46.76822350509,31.4967170812,50.5098860529,37.5287442262,46.8884287782,31.326333002,39.81403184,58.076065625,54.9629912652001,58.707470089,38.2379208378,53.2096212562,82.6369150082,44.4146638804,33.4925161058,32.5802991727,66.8076667182,49.0860726656,42.7927693178,50.3093084141,42.6999847672,64.4792687935,36.752938713,47.3116193897,40.7663977692,40.758559442,69.28402712595,47.6911098229999,58.3865435086,16.078172648,51.0100720312,53.22124912,54.865849197,51.2115549008,56.6958479664,25.390849595,53.1041161626,50.7167653335,65.152535941,63.037810255,47.4448856258,37.3514072021999,36.412270621,63.2834120184,60.50583174557,36.1504043098,31.510397842,52.7225709254,44.222776833,50.2713003002,48.1598986712,54.3209401235,43.8893735724,37.13702831,50.747173112,33.5241044936,74.382287936,52.3249764809,67.8401612418,55.1015556359,57.616178256,78.8168068616001,40.8221363716,68.06366700645,55.0643468711,38.2694538357,52.51185090123,60.9258142498,65.088122649,32.7217009752,30.74919184,51.3474574554,53.6249702247,36.18702538495,57.0766878188999,32.550335594,44.8285226352,47.37946156803,58.2698172546,43.6486606631,52.9038836876,64.089548827,40.54823165,65.2029769980001,73.764181665,63.74620956862,56.3836079257,49.3063801748
49.2312940240001,53.2674798346999,57.9101553242999,33.1243045067,39.5479800009999,44.3872085925,52.6928104034999,48.00639539258,32.8554039474799,65.1820892964999,23.018580761232,42.047416848,39.47853557088,24.4343452834,62.2117468349999,37.6340730267,69.7510067033999,28.312978719128,51.0359540196999,29.13002817234,42.02243624982,71.0293798974,32.240672352,42.2662891790999,41.3726953883,25.056005465,40.2192304774999,55.9456677469999,69.1154935715,1e+08,41.5470579371479,45.6501845442,30.516950729,34.5194605707,32.414325798,29.0180728228,42.7881493852,45.15129527064,53.3026506749,38.5487498175,34.86877877366,29.8857446289,38.0572886574,40.9305168316,46.2996597952,23.7562573074,35.59864788288,47.7368882057,41.3690827512599,43.01816922568,29.8048072899999,34.1231392164,33.877321944867,28.5784098081,36.1288905193,31.1212390047,34.7708723955,27.0154610097,44.7290899276,32.9081207768599,35.1679724358,58.9367675847001,34.3057372405,35.2492454796,31.6544730375999,30.417016378,42.9370408498,27.8281965678,31.9183601188,29.5341712122,32.1329878929,35.5694422678,37.0765961212,39.7459786555,34.1489127832,33.9284821557,34.2103780644999,39.2956965543,31.2542123457999,30.1159869863,49.390762811,39.6815474708799,34.0699154518,37.6659333946999,35.455779443,40.479438492356,33.5013520302,38.1341151154,47.3620773948,42.742615988,36.3835959683,29.3854161394,29.1632787039,35.0675369769,32.4318807125,25.70895286592,31.6781756506,47.6483295309001,31.4391158925999,31.87609408672,29.3785618075,27.4574711026,46.8974585571001,34.7034793570001,59.4922097603,25.2319342099,40.476367281,31.0799706259,28.1764179889,40.7320637435,28.9890027461,42.5031944591,52.65498352139,48.356689883,60.4859908617,40.5490410450001,27.1526585099,34.3513880185,26.012989174,37.9647037649,20.5808307701,30.3200905648,27.2445734746,27.6524965163,60.5578568837,43.9721669811,38.9322696183,34.8054578266,28.2008062974,31.579800239,30.3956662527,23.501689979,46.228246922,36.4008083073,44.9698353514,33.7965175471,25.8811060028,31.5173923086,21.79318162755,38.099941516,28.2706478328,54.2615586880001,21.8316548366,30.7330859675,27.5553354422,29.0461689384,31.2434824928,33.8577791094,28.2536530415,33.7671997919,30.7537130408,26.7130092541,43.5751168991999,43.0161236364,46.0205910415,25.2850494255,29.32401839993,48.8542841675,44.4384256868,43.9480404751999,34.8327964763,25.5159710333,34.117139312,47.9957379659,55.8852967574,45.6379006548,24.7839508682,32.1023909745,43.5412722979,26.0314891769,34.8877449862,30.7616874176,24.7032451892,30.0850584815,26.764719327,37.827224676,28.6248438849,32.4340182385,26.93513608675,26.9497642279,30.6308053111,34.5893855905,47.1882426265001,30.9823361614,44.8487029513,32.77805927867,23.6953545154,40.4238869638,34.9023934303,30.51235070455,30.1324222614,31.2721663093,44.8754014325,38.5176140852,42.1256616761,28.7830026783,32.5916667895,41.39035646972,17.6392646865,32.6774049508
26.009865733124,28.42946516652,35.88357617252,29.14478931872,28.884750892524,29.334977636324,36.05905351862,31.222986433004,46.23072584976,44.69165555132,38.663646650048,28.71952395586,32.083849719004,38.68082555906,42.587909682824,34.54012574548,55.1229684312479,36.6435538367479,30.67017960232,38.221010698248,42.59195193728,33.93341483092,32.7463129427199,21.05630491632,28.314032991724,46.9473082878599,32.8405450128479,29.30516271486,39.15383044128,41.5470579371479,1e+08,48.41973501328,37.22083811406,29.41620156972,34.3933799796199,31.32537652406,25.27764059496,24.05447250712,44.80204692364,46.3793274114199,37.95167029908,38.6037536243199,43.26466011572,43.464584777248,30.11540728012,42.303625687048,28.95471203952,36.4001650026799,31.4555656127199,33.49636358612,39.58638256132,34.84773486492,42.397950510787,30.72770864152,34.19041222322,45.2710884776479,29.57583959518,39.94868651886,33.10079617308,36.68702586182,25.91408943232,29.47564438988,33.67240671522,39.98053138906,36.6035801640279,36.11806125876,30.48679518442,31.27680444392,33.86327065872,29.478141628048,26.566014915228,31.80933179832,40.89882260626,29.23605132892,32.52144739852,27.659689369108,29.48768466092,21.682914089448,32.166781918728,41.4601860066479,18.56550381492,39.47235373292,29.74722731332,35.49648805212,33.4624806631199,50.6924725657359,33.97429294032,39.114217349248,26.31392030092,26.53696686508,36.579076771348,43.3033980551199,42.63679975912,35.072333163848,27.923858675248,30.334806877048,37.703254869344,24.13501595108,29.720179216848,42.42671327012,31.709046040752,32.089018993956,25.27266066984,21.054154941168,44.780173216044,25.160866179168,21.80842832086,24.226194437924,26.455604630356,26.777124764152,29.642240494552,37.331349798532,63.921728292198,31.436204291232,37.794744401692,25.612962707724,29.428504693152,20.826755768568,17.331428439832,33.906066887632,34.495953125448,28.853125851832,23.54446318434,28.814217673536,58.615793097152,41.12840674926,19.90523013234,23.736301418532,35.72863804586,30.478306337632,23.469976409924,28.474650848452,29.535585798232,33.716142559132,33.650124997968,24.753559784252,25.460691473136,20.852637029216,30.724540080674,32.32539395746,30.975823523632,38.61718977346,21.20188161806,27.78198106586,31.636894807352,30.724582288552,36.676337180152,20.572511769924,26.480954719032,35.159291555344,31.981681526244,41.374274945648,32.901983692216,28.595579355984,43.983010917152,28.120227689016,28.528729318438,30.572428223064,43.54499526646,29.743656303048,32.28760847546,33.562346146832,37.611353653244,36.313940279884,32.660494275724,31.288664320032,27.731982240336,21.749806857044,45.446566962352,32.43977445736,33.192491705664,31.497225866116,25.937942553324,35.872031447968,26.00279471486,28.636776391506,20.922150599652,22.522364373672,31.82572242509,34.076353572324,30.06574816546,19.26541364194,30.167407621124,32.336028927632,34.249657115332,20.13450139445,29.729846869316,24.96846706966,20.807117800552,25.290263453846,25.772523407632,32.107773511548,35.160479148736,40.194418270152,27.217204103124,29.76540393626,33.655468379632,32.256638355112,26.51973188456,29.12671507814
59.8101828909999,56.397274494,62.0908163112,57.3151725758,62.4587346477999,57.1369115383999,49.5927680284,58.88412916488,48.8305741186399,52.639613659,44.7975981420719,58.9204157834,54.21521804388,61.6000433966,54.9736312272,58.2039380494,45.039191387,39.81308289359,56.8407560138,55.4363122548,52.0473609566,54.5607124266,44.4406801164,57.7406124078,55.2960186678,56.0844213812,67.3914030374,59.575246128,53.1266062928,45.6501845442,48.41973501328,1e+08,44.6192904654,56.2992595404,48.4546144136,55.92723407956,47.5694783758999,57.3073194318399,49.7093049765,47.1242492219,57.1704859938,43.1079676508,48.8772760481999,47.2632059568,62.0800090217999,45.4861907497999,49.08390376988,44.7326161506,58.85108957356,50.6136419508999,47.0195291614,45.6931024348,45.292631000867,48.695535167,51.0932630693,43.2902045697,31.3343082521,54.3594272497999,51.813034817,49.2626905874399,53.562682251,47.4156340226,57.5836196605,44.9311265656,57.9593148942,58.3980702964999,48.7261437919,57.859608043,52.224005698,51.101145143,57.0734687750001,52.5521470098799,48.238948734,48.7729572129999,45.5356736970001,46.9553305212,59.6218476127999,54.7940237396001,58.8369165013,52.4403718217599,48.407958188,42.969108405,55.6655365567999,39.3010971728,53.8303138086,52.44505245998,46.0116401066,51.5601749214,46.3111583292,52.2480452016,30.05735408236,47.2854976716,44.5322423388,55.9986712266001,51.4807996004,42.5830938815199,51.1067436615999,50.33590793,58.7155209196,42.89178354924,38.5669406686,42.7403669556,48.8379300339,50.28099118,55.8873418424,37.136294184,50.0987728774,42.9236650374,39.5409967746,59.2190818392,43.9041612794,40.5556463429001,58.83218987609,56.9881733596,70.6309134905,48.0714172772,36.1170068594,47.0925178276,45.6730568008,34.1734391268,51.3083015454,36.91546714,42.871492121,40.7353468838,55.4187332216,30.4468410116,50.5033802474,53.5872311631,37.9638743314,36.4379906592,39.8755627918,36.8466441411,57.92641442,46.6012462277,46.4466027686,43.8993976701001,38.9278639904,48.0747630736,50.64581443685,56.095168086,38.154301744,39.2133042106,44.979605693,42.0193988902,36.3462242456,39.8306473054,39.8388100886,45.3613021468,39.2393795818,33.3487969141,39.0229572342,42.3012035196,50.3762900904,57.1367788716,40.8620174836,40.369072847,37.71767297038,55.1280840492,41.8558151314,56.644666783,52.1638152996,34.298163524,36.047690415,47.8668805425,52.8387410166,48.7235282878,35.3288502532,50.8992799854,46.5305848984,38.8202717881,40.2572175352,39.5008759763,41.4500923868,47.6406955324,37.848454496,52.96029752795,43.4223129707,44.4169584741,40.87804927157,35.4370085272,41.4188815191999,52.5333697038,44.7754438962,38.9112975674,61.1037756491001,52.58269425187,44.4888654253,49.5769123948,51.2804589626,39.10507251677,51.5895126632,49.0216513304,58.0510358597999,40.629976376,45.7900113154,39.2262090904,41.5530408616,55.19501403218,34.6144923445,42.8144677976
43.760858959,42.089783879,37.763656139,39.22398347,35.1122035206,40.0988370642,48.855399846,47.3857498087999,26.5239600946399,55.8858961356,30.8545479122719,38.1246930234,44.2401821098799,30.1302100906,45.5602038138,35.4974516544,67.432353091,32.80529261651,40.446872482,38.6192589942,50.4641764015,54.289416641,33.989899106,39.5803798454,36.5385149728,30.1439511654,33.3296259334,48.080313249,66.9440034590001,30.516950729,37.22083811406,44.6192904654,1e+08,36.1004582545999,36.2292315762,28.46780751446,36.59627085,39.4788405574,64.1631283283,26.014627009,30.5659900652,19.2578991612,22.2871507176,55.8115219554,33.1563310205999,24.0477936756,18.40495361288,45.7315732694,30.04092157156,30.5464629388799,15.15948453,26.7259790209999,21.601103457067,27.7991207764,20.6165679547,26.1611003832,39.73667109264,20.1564928024,43.7606471338,16.56768680734,40.3416488161999,44.9077766536,31.0513630734999,14.8795180902,20.788434314,27.5567371582,29.7828350747,27.6927467518,13.928340853,17.3665703388,22.1902675134,23.98657593528,26.5275084324,34.066032666,24.4808569992,35.58753704192,32.1673788599999,37.7856952866,20.0648958841,23.1717233896,44.653396469,16.28284457156,30.5753400958,25.5100796022,33.7986031968,30.01985581204,20.1892355636,31.9160951584,43.330600265,44.025215729,39.27900946636,20.1164556886,19.0074297842,30.0338718758,38.3583114624,21.70979556564,37.7185516903999,36.4855328934,30.3073794501199,32.9225602246,28.8887783478,28.1213039668,45.9666663245,30.0597126964,47.3471653218,24.8792361827,37.6690849346,27.0956602946,24.5410334736,36.5078577774,26.6573286948,44.9065609243,68.5663505252901,42.7531517798,49.088067642,36.3751058288,22.0198971382,28.4459616336,26.4578931398,31.1460583078,31.069790496,25.7649224252,36.8175631866,28.123468372,57.9485960762,41.6959422196,33.4911738022,31.6844690427,27.1199667068,24.9657622986,26.36828728,28.8794641907,39.437646078,34.8714421789,40.3800259656,31.9021505055,30.4436460846,25.0106230642,27.85493081665,36.2501983426,28.372780486,51.3855940946,23.1461114804,28.3935369074,27.0705658242,27.332145632,29.2817229634,32.776374088,28.611572286,34.2702737271,26.9132177126,28.8861320202,34.8703645118,35.552065282,50.5082955476,21.5570506322,27.12691744483,41.318122306,53.7124601072,38.0324364756,36.005801902,25.8158730378,36.537935583,40.7347253423,37.341032581,41.061750481,25.7081176078,34.27589338,39.325930101,25.3984842797,29.4200934026,29.0781439359,22.3518351702,27.8146453392,27.9829381404,36.1024158443,26.5359756121,35.1969143871,23.17441244057,26.159228306,23.485395352,29.8636349606,43.5862919206,26.8791924096,40.3585623189,32.01575731853,25.0973577566,42.199924168,29.0369578738,29.67087766577,25.542754319,38.2846470377,42.7959858146,37.6167031738,36.0591832354,19.9641480376,30.8828714856,35.40168872322,20.0690768281,32.1358476514
20.1673703038,23.1458904788,43.7718941063999,30.1345410134,21.6518185494,31.1419797298,38.7169272582,23.335855033,44.5579716161,48.7974682916,36.9788386784,24.2469208088,22.11808094628,28.6946672954,56.0008038541999,33.399102525,47.7294492883999,36.83992435859,27.9020225888,46.3936622783999,40.47198315432,43.615307374,32.3948319022,20.5374268858,28.1572955426,33.9979087926,40.682662597,29.8998741548,44.072386811,34.5194605707,29.41620156972,56.2992595404,36.1004582545999,1e+08,19.5106653921,24.2507065739,34.2679728097,21.729104312,44.8255481034999,43.715963738,35.1126049584,33.6936069416,41.12644434436,37.3841254964,21.59798115,30.9423349859999,31.3011688868,38.8580092911999,30.1657834236,26.55484920318,26.8933927476,23.3745772008,37.445805045867,31.33252298458,22.4836775439,42.1715748026,32.2898070325,34.5022343102,32.341389725,24.9036425039,26.4784540864,38.6961872922,13.7216706149,35.9520306372,26.5132824656,26.4033558668,36.5768609359,24.8632359813999,30.9359280382,30.9707634751999,22.8007535948,21.98806872152,41.4012939622,33.0152599079999,23.1255334462,17.978548261,9.96230246899998,28.4792095216,27.2143039353,35.1915102932,33.122287879,39.4977764498,10.9043966548,31.6934634066,22.1504461154,39.944578608064,28.2791903228,42.6088704752,32.7785264354,29.8630183932,43.8927691601,35.7838235986,36.7552440816,34.0412035746,15.4187775208,32.1266050168,32.7966341834,27.823340798,16.55051529568,29.8142899658,37.6477935134,28.9416811754,31.0368074895,24.830079982,46.3502251768,30.0637131604,22.9471718132,25.435165665,27.050718434,25.735819813,33.077579818,34.8967230431,56.30671472869,31.7894107492,39.8573083639,27.2995683682,27.6863940388,20.2419385774,15.6861585438,35.877031148,27.970199396,35.996896321,22.6068593698,31.2573721238,57.8997238776,40.1505285558,21.3111305668,23.4353892483,32.2166760198,26.3456620946,25.263471498,33.0252915481,28.417184007,35.4644333375,34.772093719,28.2651861315,21.457776342,21.0267453252,30.87015469955,25.3131496348,34.2438982796,38.1855327768,18.327161556,29.9679594082,34.7765379208,31.4896987226,38.1469308962,26.8880899882,26.7931318096,37.1524645435,35.3831223864,34.3988766546,31.0402058722,27.4062339806,39.9181212352,28.004301261,34.96048346957,26.9555608154,40.4914745106,25.354537086,30.1354277212,32.7631684244,36.841144161,40.5068909769,31.0790245378,31.58984,30.570575068,21.170240078,49.6362179008,29.5648345161,36.9648939878,32.2987976659,27.5115808176,31.2189552216,22.276808348,28.8698636555,25.0284639737,27.4285507407,34.14465309463,36.114268643,33.7996550168,19.76813108,35.4947900884,32.564255673,29.3979631423,22.43632909273,29.6721463875,24.659352082,21.7727848678,26.00788334463,25.9935390866,31.9836116309,27.2447818208,42.6882408074,26.5876567238,31.7197642022,33.260801763,29.93119170302,26.8422098853,31.8694120248
29.7563577755,32.3706852307,49.5114164571001,36.2716057394,27.4653680332,38.352676867,51.7961348113,34.61107705098,39.0200400546999,57.2270381524,30.92777913384,30.0616035763,23.6550061482,23.4115053879,57.1483052519001,36.4809809643999,52.8581063565,30.785436020686,32.0583940297,48.5630703012,50.41658089822,50.8962317441999,30.7547104661,27.1034819252,38.1147107055,31.9421817785,50.6625496512999,37.2848593681,48.6535976407,32.414325798,34.3933799796199,48.4546144136,36.2292315762,19.5106653921,1e+08,19.4483845422,38.53165951232,34.31111529834,54.8012865857,37.750261032,29.4892977071,26.2802111062,38.2261902826,48.2193023174,31.9681258955,31.1561793832,23.3587905355999,40.4237742445,31.99876980616,31.06034452298,29.0291739996,14.7495978574,33.915097902867,27.3889961336,19.1826022563,40.9373179117,25.9041789156,37.9723369873999,39.465244127,21.0241834439,30.3239537633,40.5364149391999,13.8011705349,36.6332961264,28.399300878,33.80493348454,31.7128856704999,25.8784801691,28.7312191874,30.8098782712,26.0651025398,17.0277809736,41.8811176385,34.63651099,14.6389401808,29.37117865142,21.2394843694,32.8670524509,30.0349478279,39.5483230538999,39.3793274275,32.422911155,18.5197466595,25.7625793136,14.36353866,37.605757618156,22.0021733662,42.1329717612,40.2465487745,36.0333043991,41.4122961696,37.9434056963,32.0472968762,34.7713555761999,24.0574008098,32.1081953278,39.6620026339,39.2036081415,24.409861887,15.80703549412,32.2998425612,29.0100038603,41.4330585436,27.6176848021,56.0514118186,27.535660263,34.9482242056,25.36783217,25.3061293987,37.1104484333,29.8361468932,39.5274451419,59.50261656749,37.6930581087,45.6976090500001,36.2970329013,22.5248728579,28.4758805826,19.0345276052,33.3388013717,28.5072565459,30.4852848337,21.0952093354,28.5865425038,57.5400606624,37.8481495791,26.0030853956,31.9722870458,29.999171866,24.6237031749,24.7876924837,25.9288534928,38.4604358531,33.6862024283,40.729685132,31.7697620098,20.9027975775,24.4063138228,28.10579235435,36.4754764446,31.5353195349,40.2756023917,18.8774928302,29.1283976149,27.3449138871,29.9686708081,31.957219638,29.6745121038,24.7965702591,30.4350833538,33.3773739105,28.816911589,36.5100787054,36.0544866604,43.1760053874,25.4773629868,33.09238000357,36.9519855643,42.7626803374,36.4098374754,33.3537479521,25.4775751031,30.6326526936,45.167842936,35.3610285277,35.471419057,24.1901542182,26.1271549072,45.2845750042,27.2094395842,36.5231123964,28.9502242391,24.817414673,28.6107894887,20.9958023465,34.8592650615,22.6325207871,33.4118729148,27.22042981456,30.3984872401,31.2283831784,28.3781190816,40.481650483,28.3499990009,37.8126661503,25.21559779603,26.7732369361,30.9209583944,29.4769668329,24.60381181233,28.6098442615,27.7004857923,37.6070491491,38.2010241376,31.7728899554,31.6044113115,28.3060745155,38.85479820842,19.8820844135,33.7418071555
33.4402155275,39.2793019233,42.04206088774,32.2961154945,23.72936538174,43.1678609065,47.5703680695,39.85405140538,40.47184090576,58.9613682981001,32.58287411996,36.6061440441,27.9439307176999,19.30810733048,50.4884746735,29.2645025179,83.0221464001001,32.430123208728,42.7311683059,40.0177939223,51.15092022388,54.2173206732601,32.4968200839,28.7586227421,35.7620269901,29.79276679044,40.00404183314,45.9697784225001,75.6386907861,29.0180728228,31.32537652406,55.92723407956,28.46780751446,24.2507065739,19.4483845422,1e+08,35.8626425503,32.30963376254,61.2533166743599,38.87499686048,26.7063786923,19.91976063186,37.46365563714,60.2355404724599,37.8400229773,31.89856444456,18.55895516504,46.6294871622599,25.52825402766,38.1453991311199,24.90954916238,19.62619358338,29.869293773027,13.70294247026,24.8769792972,41.0141732786599,31.32083883366,29.45918002038,42.75489345374,22.06235808948,30.7227847377,49.3149828226999,21.7510537673,32.85141460926,20.29745174908,23.25023009932,26.04394904732,13.32105846986,22.3491495258999,29.5528600605,22.04701643018,20.3349596503,40.08050650852,27.43812302406,21.2733670208,32.3752840323,25.3648887271,31.06916840454,22.1644483418599,34.0123023156599,41.5694360321,26.75932684006,23.82530512214,22.66349508266,23.0006291621,40.326099042704,17.93818401578,37.9844803172999,44.3683929243,34.6476062801,46.90189850684,35.85967366706,25.98491001646,29.7757912948,27.5610230894999,29.12568601526,37.1935026072799,38.48273224412,26.4056639157,27.23868817958,29.52668429186,25.87607159596,44.6878352048,23.02756907958,53.51737374554,28.12436463764,35.0982869073,26.28274270186,21.12978585782,34.7778516297,26.1111744446,48.07485943876,77.2668506159501,47.2046397859,49.51404867934,38.9687365399,26.29304722502,27.4441122503,19.20122504474,31.6803332396,27.83226770774,26.91114421542,27.28249281086,30.03169317446,60.92040737586,47.89124789648,31.1653540343,33.3175205968,27.24942550546,26.03489553656,25.91447057352,29.92441147356,39.8842559415,29.82641525596,45.86791313434,29.41566229386,22.28596381386,26.19847131094,19.39780681171,35.6334459619,33.03664873444,62.1158726189,20.3585335725,25.61528202202,28.94819369234,29.83428827562,34.7625277941,32.1092323883,25.56057082644,37.20333355304,28.07474846236,30.29695348948,38.03625442866,36.2875727597,53.1039070299401,24.1776561482,27.10179664053,44.0175893379,57.12807022086,34.1193961627,33.06829976386,30.52047239962,35.16518785052,39.0572338681,45.2199254221,40.6488252961,26.4960356032,29.4943380005,44.22217249324,26.92069892326,32.61726753342,29.73946627354,19.93894049584,24.30744698138,23.89348797708,29.8031487788,19.47716924098,33.70053510284,29.26072838314,30.1335478904,25.62987875164,29.1272583191,46.3981948367,30.8038013965,34.7654952734,25.64048891163,23.93074729824,36.4726154675,28.02850890914,29.71689654349,20.2507590327,30.38541598248,39.1377482875,39.7781524207999,36.8899384055,24.49382437098,28.06739431904,31.66218545416,18.89917250936,31.0141848422
38.0820495089,40.0102352747,42.0275579823,36.7744978320999,33.97321152988,39.1948640432999,41.0783852389,36.31716819182,39.75748632764,54.1637026019,43.3569624240599,35.1038280123,38.9372716676999,32.5151765885,44.3509050189,36.2389813653,65.4106155433,40.781141608498,42.1190349728999,37.00498846802,44.35773166582,45.1731519972,37.9625365501,32.0265760655,37.1764226189,49.0585825266999,26.98167985468,41.7400869829,51.5502233449,42.7881493852,25.27764059496,47.5694783758999,36.59627085,34.2679728097,38.53165951232,35.8626425503,1e+08,31.6118337713,58.9297710625999,51.63854257388,46.05506510784,38.8671065617999,44.96323275182,50.9231360428999,38.7086453449,34.6613740714,29.44550003328,39.3373060595,37.74759154908,33.51100159888,36.9630438994,37.697155505,44.338170233687,39.1935426716,31.08517114578,37.4332218624,42.6298632565,36.8324138153999,33.2104600189,38.14842301372,30.03169252428,34.99559624838,32.9849397152,35.8928722618,31.3898038837799,34.2598796741,30.8172238854,40.9694974186,36.8405247645799,27.0050146137,29.74001088728,32.67658695742,43.4410072536199,35.44436638828,32.9947120448,25.6675444431,30.8989982009,27.08859085368,30.85576346724,33.8146257156,38.2897199628999,41.0203236677599,30.57291734308,30.97107390682,38.4353452632999,46.881198683936,35.3599055556,42.4609850304999,31.5794506219,31.4819782789,37.9132817155,40.3005660941999,43.19144580402,29.9628661072,33.0967880907,29.89310148962,35.6091405283999,30.5607428875,31.4984843171,46.9151994570999,29.93108525538,34.3729460845,36.281981173,22.56382171428,49.4240217129,27.71397587264,28.0984119729,23.97049975006,30.89217747728,33.1776396549,32.01481628488,46.68629716322,72.6368460617502,38.2024896009,40.3392040872,30.6203770509,29.10271911316,26.3203807949,21.94460024808,33.90274276074,38.57869960624,29.3138338332,29.19843107012,28.67483155574,54.52290722646,41.60592124634,27.5318405497,30.3182472732,34.59348048852,29.49845965294,21.02222903308,32.15327401608,31.7136328189,34.42115382262,39.0041659399,30.49027211958,29.20932780808,19.73734707208,37.51044834527,31.8131912859,30.68019337398,49.8853185349,21.09492678726,28.30602542652,35.64097821108,28.74569083144,31.86134338048,25.59217345508,22.64497332624,39.86079144758,33.28891235604,37.46976494852,33.88231246872,33.9352523619,47.0377811499,28.47363556032,28.13994585897,36.3854960559,54.2226870689,29.9858871567,32.62517385918,34.4461758304,44.03400760602,45.5706285833,35.0468925425,39.6870054177,31.6373784704,30.8548104249,48.98442252854,30.27074491406,35.57853176594,33.26881463058,23.02839586356,34.5064699611,27.00860007026,29.99197848438,23.99275359328,25.42749509258,26.96182232851,36.49095892238,31.67604497782,26.8128098189,35.1033571489,27.25138091542,36.9778373372,23.79909613617,32.02211649076,28.7356769937,23.6521182365,26.12741112019,23.59519928198,35.45476684414,37.4540832469,41.8941266975,33.7934627799,29.61176410122,38.37572945612,34.9661774299,28.12933680524,28.01099032916
18.42846480024,28.753445696,41.7213257584,28.998407216,21.9533388087999,27.8956185022,36.399168538,22.5175461544,53.7411187309999,48.93148476324,44.80224722094,22.8665232462,24.33035520024,36.13845182504,53.1095176118,39.6113969948,53.195503207,45.3675554065299,32.1421415982,46.9010717208,43.8395399144,41.6097249336,38.0229471667999,21.5640531738,31.24736149584,50.54760179784,38.89054997964,23.00539919,41.9722904829999,45.15129527064,24.05447250712,57.3073194318399,39.4788405574,21.729104312,34.31111529834,32.30963376254,31.6118337713,1e+08,51.18264288142,49.1476386067399,40.7922228176,42.0876224683999,46.6844952573999,41.8767293649999,19.6004517724,37.3009497889999,38.34732578376,38.85808904084,28.05684497,32.92709203086,35.5722500729999,35.7617145812,48.716028778907,33.37821577262,32.0373103989,38.92903704384,35.82018312094,30.263219168,28.9964158648,35.1530536839,25.6109062724,35.1957861482,28.5455948231,39.260252949,34.3036772824,28.470571783,36.5409850757,34.08318633204,37.4611405363999,35.04272204552,25.85965833784,32.22523394052,38.5720071388,33.1819677915999,33.6914735728,17.27450728736,18.7875421112,28.8329581344,30.9402003632999,33.4224981786,29.6000049948,43.2028034510399,23.6717434368,36.933925541,32.6886316894399,44.9252521468799,38.5541094127999,36.1754482015999,28.1585502229999,30.697818975,40.03406255774,40.81400977464,45.0662184385999,31.44655666944,18.60878954624,31.0494945536,35.842899411,20.5110342536,23.4621163884399,42.0471634312,31.08646258036,28.36986342292,28.5268175773,23.24011421156,43.75138856912,28.53209622216,21.68135785948,24.43313031176,28.72745080924,23.09923566888,33.40250007804,40.69532292978,67.7363314998901,27.25672168452,39.25180995626,22.99826937248,29.91525546992,17.53822935448,19.97258992424,32.27151439684,39.95045849424,33.38754343536,23.84189720444,33.15137345992,63.63002131636,43.08383615696,17.09267934348,20.5536047612,40.48452587192,26.70344143504,26.20907442308,30.99076435786,19.22538563756,38.59072053314,35.42595041616,24.74202196286,28.00905677096,22.58082231816,30.55936810339,25.53629686424,32.72904868216,40.4754104838,24.88935462064,26.74863415776,33.65512878604,29.72339105172,39.69965810512,23.47404046744,29.75148792056,39.78785468494,36.15006706324,44.90350187964,27.05190596464,22.76644394324,46.4607585796,25.31225213284,28.92601601677,23.13712134548,46.9560394874,22.9752787138,32.71087285644,32.8689139072,37.91349638476,41.55135858974,25.76217942392,29.987257155,34.5940796042,22.01793871728,45.7849446408,32.32913112754,33.6210409394,32.01367189534,25.38244239216,32.26000728,21.61367150576,26.35605692394,23.45127743162,21.6991058585,32.37411991711,32.8650428995999,30.66106780236,17.64676745492,33.51823308304,32.45626299272,31.18078325998,22.33178866427,31.9377719735,23.79865024312,22.82785797924,31.07571846011,25.12161391688,31.48543689894,26.91306582264,40.12447025276,28.69988964532,29.96449913584,32.19115199676,27.16041767794,33.17411894026,27.76698317464
48.4226270249,50.7242797959,59.8279229098999,49.6328801125,53.0498129343,56.65036479002,38.7574746153,52.95316059238,70.3501481441001,45.2236295169,52.99267380944,53.1406240642999,47.55884470338,71.5840535498999,51.15177869486,46.9438558705999,52.7949206853,48.5307658818421,54.4414673458999,60.5935413265999,28.09237855784,57.4760292191,49.1556901418999,50.4738836359,50.8503204937,56.2537026137001,59.96437341468,50.2133561573,39.2942885283,53.3026506749,44.80204692364,49.7093049765,64.1631283283,44.8255481034999,54.8012865857,61.2533166743599,58.9297710625999,51.18264288142,1e+08,60.2780775246599,62.5494399876999,51.4170440031,63.3093457340599,41.3847977212999,54.7772412773,56.5545387509,60.99991111358,33.8202896091,58.4009644662,53.9670648353399,62.1380183182999,57.0348369661001,56.0880168814329,55.33986223316,59.738401158,57.0707161674,42.7811156603199,64.5104049643,53.82799346698,56.4278541101,53.0423201607,57.6947952825,50.6838378733,63.0329101853,64.0649394580799,63.2543274133999,61.7378109415999,62.5105002755,64.4482458963801,60.3617268509,58.1267191038999,55.76090427182,63.1347348496999,61.4941583297,55.0889026988999,42.55618019406,47.3230664579,53.3961351793,64.0913319287999,65.50686797566,47.2797165509,60.41215128368,49.3935376979,58.3158872753,45.0040681274799,61.4304843607399,55.9585231333,63.5733858629,50.6602976861,49.6928442393,44.0631936144,60.7537553127,55.2104945619,64.2615045533,42.6975689689,55.7175473054999,47.8035474333,49.1966900895799,48.9344802034999,62.0264342273,53.2870834215,52.2184039685001,45.46318112458,51.3739294411,49.0544978695,48.712112888,44.57631018688,47.2807863181,52.2971561583,53.7832114767,49.2083535834999,25.00500241022,42.39613577697,49.52365825772,65.26099720856,47.8391829862799,45.6218451363,37.4898666245,39.0219267665,42.0874515847,45.91750904806,49.4604633671,41.6496284251,53.7738603693,56.44856738152,34.14890120852,45.2505599655,43.6035968866,50.5623949391,51.1491600473,45.6392378611,49.0617409056,54.7466188485,54.8884445136,26.40059177808,49.63431705266,43.4422296977,45.0757958377,48.51417436345,50.02165636088,53.94900772492,35.99572008686,46.3245504545,51.6105588089001,50.1152312755,52.7052789515,51.5185132300999,43.25765505288,50.2158529699,42.4090016088,53.8034743871,52.0236625727,54.4252795179,52.28479811488,31.9376343975,53.0026354757,53.17213456523,51.98436501388,27.8063228461,55.49526922408,34.19532981106,47.9409918625001,48.9094620981,47.767102355,57.5850384213,51.1120651281,51.3986379797,41.2968309811,55.8957430069,50.5906066042,51.0444476475,50.5801656444,52.6187866776999,53.8019675971,43.2355523261,52.96887133611,50.7845296526,45.90999474478,52.43373526387,50.6519034423,54.1880805031,42.9990561633,29.12331111132,51.2270085025,54.70783576718,42.17491167555,52.5679686144,50.1370862485,48.5969800277,47.60524412453,55.57589315228,37.47969876056,54.38505783348,50.8497805437,46.7294180969,50.9075490389,52.5791672599,58.0816196725,50.6903965048,51.93972306828
54.4593988823,52.8659563673,57.1593172727,39.86608605396,42.9290955681599,36.42498071196,58.2040953403001,60.71996799258,40.50577772222,70.5186632666,54.35720859456,47.4794467013001,46.3274395503,39.2898760508999,56.5762096254,35.7813619481,83.3800292903,47.6774920281101,49.6860734653,38.3160668573,63.11006211582,57.87409885704,29.1516571367,47.1552656935,45.0560915262999,40.53234618016,53.5431002711999,58.5518625925,81.4334958245001,38.5487498175,46.3793274114199,47.1242492219,26.014627009,43.715963738,37.750261032,38.87499686048,51.63854257388,49.1476386067399,60.2780775246599,1e+08,20.79782870828,22.84518167516,11.1651568098,57.4806502085,50.0341136417,34.1290964071,32.2156462283,41.42816591996,38.9703756342,38.86342992518,28.9733771023,37.4440045696,11.976074255833,29.5860980745,32.2490393068399,22.2625759691,40.56791331946,27.1326981007,50.3762772489,32.75505048434,46.8724013322999,47.9492940202999,40.11879416506,26.5211594305599,35.9110385915,34.6206495269,33.5297156071,29.676133069,28.20624559956,32.98468711034,43.5990783004,34.1160418266,15.9643601972,31.7758199129,36.8231835207,46.10549099232,44.92993886956,49.7091912641,38.5786376678,26.19901315716,49.2607223233,22.9181606847,40.2908815956999,34.5495165559,42.7282724496,14.234156560116,27.4152271251,24.59744138196,58.5383834533,52.5139246655,47.3573304310999,17.229072509,18.2406329958,51.0073989586199,51.1208024083,35.3542421350999,37.4320434433599,40.4945136516999,48.16465738142,32.6890550998,28.04916215656,34.0280009095,54.2233287164,36.88140578486,61.7579408169,28.26678798802,47.6284539839,35.37168788096,27.74061872566,44.2902205281,24.5678563321,47.24692518586,78.38368023633,53.8922180026999,62.6355363903,45.0906573347,28.5199912969,37.4360805265,35.3327007613,37.65777246154,35.08257868044,27.16426497268,37.50581536958,28.25563842044,59.10518570376,47.07204466776,41.6952832789,47.5133951656,23.34239358436,29.77611780022,32.97308534928,27.5252198903,48.3459729131,38.859927605,51.67338118296,37.79914568952,28.35780399988,29.4570422926,38.87381939971,40.4102745147,26.40618951136,66.7798885083001,30.20490943288,28.9731615059,31.01773348716,30.41418871316,30.89194798584,37.27621817224,33.0313393168,38.80131360542,25.79284242276,35.88545381928,35.5474634991,50.5036802608199,55.31385793128,22.57433852834,31.29210987919,46.5788427753,52.3054244325,43.3432522187,43.49148040558,27.45592728802,40.2750689415,49.3964052358,47.5564656483,53.3918013001,29.11681013616,43.12056204936,31.41314001196,26.5639281548,26.56838037442,25.39931142274,27.25658414598,27.04444449042,31.56376512696,41.96513222772,34.44939051964,40.83252286586,29.83097117919,23.25727449516,25.6552495368,42.0712691107,51.41714219356,33.49490431996,42.60284206926,37.17696009229,24.26648496166,48.2557618548999,36.27104202128,32.23667492053,34.34719711716,47.23655460056,47.3447453309,31.54022854396,26.7346978273,22.32077807186,23.97159726974,38.61201387328,23.66868596346,33.66375935158
41.9551671111999,46.1987136372,51.49106608836,29.5991093748,32.2156027722,41.9920749778,59.8878091988,48.6882935938,41.0063165982999,67.31684775,48.19058249086,38.9761955662,36.8756928266,26.1685407247599,59.5719863109999,39.29791426556,91.2053113352,41.81623690931,51.5796192422,37.60063207242,59.7398420750199,55.9292040236,39.966079345,38.3364162172,44.3838427362,34.85549386876,52.2610169323599,54.8695401712,86.8231699108,34.86877877366,37.95167029908,57.1704859938,30.5659900652,35.1126049584,29.4892977071,26.7063786923,46.05506510784,40.7922228176,62.5494399876999,20.79782870828,1e+08,26.539092792,21.7337356744,62.0314584269999,47.7519514248,32.384847387,33.1520639238,44.7631078346,30.6440896148399,41.4887601221,31.79914102,29.75353762196,21.215485111999,20.7138387586,30.1655997879,30.494865131,28.28287118826,19.8458989164,45.2057892301999,31.0474686053,36.762861395,40.327132066,32.2483745753,29.3691970608,27.7760282372,26.06701952408,35.59549063226,18.1793826108,22.81487566264,36.1878596988,32.8882505814,30.62560230272,25.7666037952,29.59460910116,30.548526029,39.5498749095999,35.1218959262,41.1899817131599,27.6811845783,23.35517066756,49.0430559352,31.6898801258,32.001666746,30.8517947984,35.8164428882,23.4376706935199,31.5763323396,29.2631956592,51.3545936582,43.4912213322,51.83067408324,21.9916034046,21.4077004376,39.386643364,39.8121541371999,28.9096873537999,40.7244116912,33.659472982,39.46184480512,26.73523133,28.477962836,28.85706228024,52.6516115631,31.76402796228,61.316533346,28.5328592379,44.5462934832,29.69053512796,20.28319070224,39.4449513812,21.77853312716,52.1097323427,83.73162175729,53.0636914532,56.823179094,46.1225002762,29.01519604654,36.8181032546,29.95236430424,37.0990023898,33.87855278172,26.40749776464,33.1701212824,28.54140651644,61.58281455836,52.4238258734,40.5375234784,46.7926125645,20.6921384526,28.371862673,30.66684470184,30.5172650783,48.3715594210001,35.71104004006,52.5247934714,32.2665812397,28.8632011462,29.784450529,30.57753368275,39.585093451,31.8396547524,73.1060067392,27.8982481532,24.62955915836,30.8884133596,30.0014076108,30.5953619224,35.4795606294,31.09786207656,35.50254580038,23.1830437506,31.21644990784,36.9050002506,48.543286627,56.1510027147999,23.9609473248,29.29061526263,45.9189464462,58.0101768555999,42.3438243838,36.84604373864,29.3751916244,38.55544778424,44.5207548635,53.1962179356,51.2646094434,29.1127716772,38.9563572396,37.7988411356,26.06907731106,27.40393941812,26.53455180974,26.90849297688,20.97219881316,29.79294283768,35.94908401638,27.99181835626,40.0815396879,30.04405709375,25.466557377,23.6479753808,36.1655131076,56.3859334652,36.33300980924,40.3605462611,33.68726900513,21.8753855924,45.9707290194001,37.0915859458,30.56218383259,27.7982633742,39.59525025728,46.3569140672,36.54115227344,29.570981523,21.65357209,21.85966288424,38.15975290242,24.5012356817,32.64544140136
