1e+08,14.343667559,20.789784186,16.53637743,18.881057057,14.284652814,24.103543467,13.0626105014,46.2665501876,32.122892703,30.62703567926,12.686477644,18.8740288354,39.083783713,29.66801465,28.003624458,30.582424447,36.34786784769,13.229601736,32.9440590282,34.7207525238,19.67048599,22.574619232,15.710125588,15.847841829,38.4083564798,28.399536963,11.377948056,23.622058387,34.969778472,16.07389525162,53.199199433,27.390642306,25.536554615,25.3801389865,29.2447666721,20.7730689759,14.4965523882,37.0600614879,39.3887278313,38.6094480322,30.566107614,36.1423026654,37.20272631,18.997788557,33.709433951,25.8562565176,32.347680106,24.2239089658,33.5099201691,29.610138604,32.120606653,33.071195392467,31.1419874984,26.6099667189,34.2832860075,39.0907674847,29.610785168,19.907550802,27.4599263627,15.109359429,19.999770734,25.7056217145,30.665393736,30.189631805,31.1447362593,23.8504887867,30.66240322,27.365739143,25.198910533,24.825676171,27.5098693206,35.606428023,23.790510205,30.540440054,18.0457485742,18.695887406,25.522312613,28.0101947785,31.3603539212,13.906580351,33.6947934296,22.761132371,29.4088047446,28.436003764,34.92074169998,30.658495719,35.457767718,16.792305453,21.516418911,46.1082441067,33.685450827,35.94522537,32.568846605,17.580869213,29.3295930376,21.592790528,15.103396756,23.9788723402,29.5470429848,34.769462,28.9696026146,17.6174774491,23.950483648,27.836584707,26.1679407388,18.109887764,29.465067353,30.879295383,16.006772246,36.688442817,40.2896296057,67.96519836329,15.955441619,18.5934246733,14.9828826,26.9336144082,17.512457171,20.113530832,38.195359626,42.7069295882,30.17909072,22.115699051,30.9775393344,64.173962744,47.6812880404,12.4275490992,17.3078009219,40.806415977,29.0075014266,22.272036086,30.7433011319,15.428994393,39.9363141585,37.196547992,20.5554658575,24.255879987,21.014732159,39.18179285395,16.544325084,31.3940101526,30.829643703,25.603633082,27.618302471,31.183169536,29.029208673,36.865091981,14.812246257,26.6757656614,41.5005818195,33.199664243,52.8509107804,20.4653044448,14.164591898,46.555419365,25.1057980904,31.83080563327,14.244880571,43.357363737,14.6270509352,37.605220283,28.351846565,36.748871802,29.6526996019,13.9407366676,15.2308304608,29.78586196,20.631421479,45.515470336,26.8720441487,35.584353957,33.624598263,30.842763675,36.7895516676,23.9325074924,23.2688494901,23.4641298851,15.5573700934,29.37536247503,34.562318661,29.041890116,13.541426661,31.613834739,29.0011991614,15.9273080309,16.69233141162,26.1953042479,15.1601537502,20.491340961,29.85186387983,29.3139740264,37.9037425423,16.407918771,42.991769523,18.379494097,30.164499883,36.935158788,17.03904164782,31.3455992937,29.2032785558
14.343667559,1e+08,21.754986587,20.047414446,19.459827966,17.04901517,22.318257545,13.8706140124,51.8207325834,32.367491723,31.82103910226,10.601742867,20.2987390134,41.68856497,33.297686523,29.382490578,28.910898641,38.74189166169,11.480264247,37.2071328702,30.8263983418,26.231988477,29.334455818,14.420917952,18.604759525,43.0567284828,27.302395953,16.403640161,22.715454878,38.715382593,15.90925945308,56.143742177,31.39622824,27.081321478,24.1806495855,33.0969640821,22.3385242899,15.4258392652,36.2892742959,41.2738944873,40.1130582232,32.637688749,38.893867718,36.941398353,16.373409926,36.424615534,27.3935187306,30.3525845,29.1353565158,28.8921395311,28.997009372,35.04859282,38.790532025467,33.0729242485,28.0246156489,37.2593678905,38.1634433989,33.423667227,23.911018681,30.0983914287,16.112967334,18.531902393,24.6895427625,34.523290783,32.308808227,33.7177853558,24.9812379997,37.195055559,31.290017682,25.714354206,24.379900612,26.3110808866,37.591114897,29.314165518,30.128807039,17.7030481672,18.455082336,25.218275965,29.4352214735,35.0029847212,17.267768453,36.9061490906,22.304229897,29.4685638866,29.19812224,42.24271355198,33.437786853,39.849930353,11.586946062,21.162428224,47.3009206787,38.187670363,38.506863837,35.019290785,19.559598612,30.8877501156,26.749778327,15.001239751,22.0221132236,35.0431991188,37.102716833,33.9081379886,20.5047233141,26.568763876,31.166963126,28.3327003468,20.384189013,28.321634638,33.356805133,13.733230813,41.165423709,37.793339561,67.31757814639,18.604517978,22.9045250594,15.863448735,28.9805632702,16.92742369,21.276568264,37.015532047,46.3250675862,33.312453671,23.880019997,33.8708450884,66.139150576,44.8005472274,11.4191344526,15.6433331929,47.842965207,27.5890022866,21.041143217,32.6646435639,16.445199286,41.6273478515,35.288857283,23.7479814045,25.581218537,21.068686534,40.99217739395,18.857874164,35.4457477936,34.072215195,26.094197413,28.690386319,34.290464925,29.668266028,37.135621288,19.847050872,27.3526633044,44.5289491595,37.814582573,59.6056280564,20.5797838298,14.56388297,44.217817774,28.8706986874,34.94852412457,13.3885022,40.964531246,16.6851789422,36.517557139,31.738116792,39.383860475,32.9537772879,12.6994480374,20.4260155978,32.032033436,19.473739247,52.87325051,30.9422040787,37.31871126,34.253356076,32.369494382,40.5958902786,23.4726998904,25.12334124525,24.1450774971,17.5393511322,31.45410710103,36.703167891,32.208367028,12.977878304,26.508720942,29.1955153594,21.0700902639,19.68939825608,32.7985053999,16.5727303406,19.335733964,26.36239323083,31.6273949994,39.5934971263,20.139039031,45.222353792,21.386497881,33.305536204,41.997122915,22.33754973082,34.6993303627,34.1054038028
20.789784186,21.754986587,1e+08,24.044966036,28.977326923,22.930371223,17.778481051,18.4601406358,48.9223597124,24.656303139,27.13228470726,20.311811128,30.4875150444,36.795800661,19.578914505,29.637892788,38.245057755,30.65878506269,23.769078523,34.7213460972,31.9208433568,26.024627755,26.582720778,21.072531991,20.235794561,29.0529804058,26.790912251,19.321495462,30.394336745,37.4664811125,25.94780949146,55.495643292,32.855585994,34.897106598,42.4823379955,32.3916986621,33.8474841639,26.8670208324,38.0921451439,48.5409844583,41.7480552442,42.27014695,46.6425099794,46.085418749,25.23743984,44.707774307,35.1595751886,27.323111206,24.5992572508,39.7127946081,34.347130189,45.496298018,45.235906744467,34.8007990063,37.8047390079,43.3401105135,37.4108606747,39.023112592,16.490418199,35.1000916357,23.885667909,25.148232105,34.9396472825,40.207431108,37.155089651,27.7143766238,30.1911846637,31.475527788,36.107051077,31.805292749,28.960153981,35.6365436316,44.386488135,30.822113811,39.884687777,31.2649825568,28.722356275,31.882832607,33.2681965605,31.5719095942,21.499457483,43.0684660096,33.29410329,39.4546085936,39.084510442,48.47352715898,41.669391183,46.636494878,16.413494799,22.177744909,41.3631973597,38.864480131,46.99276008,26.229356297,29.656606121,40.8272700386,24.690093224,27.768615343,34.1786335344,45.6440046628,42.398127431,41.2629990506,17.2309916601,26.84958066,16.196422317,39.6640737588,19.571806353,29.997246693,32.702626214,21.347912414,44.617571547,41.3231971964,86.50207629369,20.139235685,25.3927235098,18.225910437,37.2861588212,26.691371901,27.615763453,31.797032331,45.8279587652,39.077851278,38.8859897,43.6992286264,57.725739725,45.3335678114,19.5936751624,25.2340878687,36.94471859,39.9451111792,32.348737116,43.1428977349,21.782455091,41.5852906525,32.132789042,24.9402514865,37.818903967,24.173888677,43.44539834695,23.157361609,44.6082463376,41.977969407,27.355928263,36.289013274,41.773920185,37.688334683,49.370555004,19.269011591,34.8192757834,33.6166883875,41.40820731,40.3464369064,30.3839554646,18.021275947,48.944487154,36.0271925584,42.92795680491,21.08728935,57.229347625,23.0729369892,32.835703546,43.924089632,50.229119933,15.4841505519,22.0282352156,26.6764213638,44.356352357,32.794964444,59.243875477,39.0859113107,43.878271612,42.5495317766,31.160223664,36.3394984866,34.6365742784,25.75031008445,30.0804630401,20.8564242154,39.65811309203,45.013666946,35.9960520984,22.535055509,31.01762432,42.6265077802,20.6378253527,28.32164269854,31.3761376219,19.2950582522,26.263158697,38.88678253483,28.7892748824,33.4714773873,24.074544241,56.030728321,24.659416877,31.373978407,43.026970886,21.35183361574,34.1116309627,30.0594311038
16.53637743,20.047414446,24.044966036,1e+08,17.139546433,14.920242657,24.001702718,15.0838174158,35.7523722551,37.130120791,25.87429958626,16.797053832,22.1829456684,30.708019606,28.677201257,26.678270996,39.024959573,29.47804451669,20.321272704,33.3792760422,38.7868537998,26.242985643,16.4011272,14.281325981,14.904016424,32.0431121368,24.453478731,16.835550634,32.288124884,23.08054636,17.28289436708,56.893697247,25.760198221,26.573584675,24.584942693,23.7514008131,21.6244157909,17.4925263682,41.3167440009,32.5449694283,28.9250516252,26.842360219,28.7824857962,42.066755225,21.443024556,31.337963269,24.7292067626,34.814637993,23.4493930468,36.3871345591,25.610947094,28.639785412,30.279956117467,24.5785847418,24.4725358139,31.4075052335,37.9511284481,26.663386601,18.789863463,27.0035381307,17.303256994,21.4037287,22.9781039755,29.424963627,26.908659744,23.1461543303,21.8823643027,24.59660005,25.014613908,20.680543476,20.247506795,25.4733385586,29.966450237,20.975374184,27.067819526,21.3962681639,20.875893586,24.76374772,23.6554744595,23.5757029242,16.384078108,32.0109187016,22.30152142,25.7925582146,31.050268699,31.39747030998,29.050404466,31.410013601,18.602033726,22.277162076,49.1468589037,25.70911823,29.98278918,30.059233008,20.206437588,24.2002600946,18.703375695,16.92577066,21.2150880676,31.8444109078,28.186492695,30.3489374806,20.9318911851,21.439403785,31.13968636,22.4136633178,18.094379123,23.6134089,26.33281701,13.807976559,32.075000829,42.5174100069,76.65802107139,16.363666144,17.9819926351,17.563803909,23.4756919592,19.687876191,21.864280933,36.874017539,36.7918940002,27.280979396,21.760610379,28.7170636974,64.762642498,48.2822148874,16.4538216052,19.2994314546,29.094806213,26.6195083636,20.488047723,26.0416993729,16.700399048,37.377360426,40.009170481,18.4992712725,23.438865077,17.309125756,37.06694976695,12.919580761,28.8131781786,36.958000854,19.656182957,24.455583376,28.576045691,25.50202271,30.834769874,14.141993869,25.0233351854,41.2102117985,28.500494666,39.8263351974,20.5201885508,16.487498545,48.577240828,23.2382113264,29.45380697927,14.547778797,48.417077985,17.0320626362,39.717664771,28.171712109,31.595636436,27.6001383049,17.2445634056,20.3028772148,26.726772337,21.642058313,40.374080611,24.5317556647,29.566341035,30.5471675112,23.998915072,27.6809038346,22.7251616864,18.7085562997,23.0529057001,17.2861147112,24.92385505503,28.44920422,26.656818781,17.056666675,35.863392505,27.9974212024,13.5614788756,18.68597467781,18.6106701729,19.2226008802,22.996664856,26.39820831483,22.6202635114,41.2039844133,13.10525715,37.410299455,18.866442663,26.128120438,29.156538083,15.99595959582,26.6831304487,18.3196312718
18.881057057,19.459827966,28.977326923,17.139546433,1e+08,16.054966837,28.181566576,19.3619499634,29.6014343337,40.308228254,23.45175006974,17.228985832,20.7998639574,21.133215186,35.151704856,24.4485493,48.14470632,26.20099500298,18.889671974,24.3465066522,36.4757967698,28.799574614,22.756052728,16.601406277,19.093278999,26.5425305488,20.641914942,22.053536671,40.718494104,21.509462626,15.88698136792,49.378073853,22.003001986,26.473001806,20.585979361,19.3825925309,16.9014768311,16.7467706492,40.9212889889,29.1598197013,24.6282537792,23.870344735,27.419564129,39.702246846,21.738717971,26.020407055,17.5257372574,30.197628601,15.8900710098,30.2864702672,21.754648745,25.652755965,25.222885111533,17.8066112885,22.2618942349,25.4159637625,33.8363650577,19.955797772,26.465933088,23.4399569197,15.302522006,23.708566686,22.651682627,24.852926001,19.086462342,18.4800924401,18.3729697315,18.743166948,19.620287528,19.266860305,16.928512828,23.1543131772,26.007751298,20.693284925,25.136787254,19.8843336178,21.736476716,19.376903706,18.3618592065,19.9266317588,21.558162496,25.7330344646,20.809449389,19.5623745572,30.081700433,27.82025430608,22.717549917,26.293539799,21.443359719,18.858330866,41.6437754333,22.62128655,24.037328534,21.501495555,21.648302379,21.0193845324,21.76469731,19.012979616,21.4911162162,29.4205043614,22.877144553,26.5367325876,26.9327619121,18.026332579,36.191726134,19.7455487896,24.032780735,20.741089522,20.351382675,14.644898281,26.943247596,42.402676649,69.53680595738,23.962498402,26.6232069013,17.883761713,21.6875457828,20.260043786,19.722657096,28.917334512,26.7424524372,21.859763881,19.913271118,23.2031770006,58.550602787,41.5112145064,16.0527227754,20.050771975,24.306202631,25.2615504796,19.831111625,22.4498641241,15.928036249,28.4812994505,37.139387973,15.2571491905,22.572411889,17.159517499,30.42827337895,18.708019514,24.7633188598,45.365783292,17.362995214,20.344266622,23.730925264,23.306031668,29.085329031,20.463154224,17.5137447064,34.8160669575,25.940371623,29.6566246596,22.8150640268,20.56273347,44.885473027,18.8050048528,24.09544216669,18.49351118,48.5182903700001,15.6951450592,31.417100184,24.938798809,33.272524036,30.0326485859,22.0496869926,24.9502720188,23.828684392,23.193834525,40.662815714,20.9807916693,24.589944546,23.6076316625,21.333836389,21.4853068186,20.6381824324,16.06281513425,15.8563232381,16.3089491846,22.11184473394,25.561977827,19.1092023356,15.114714886,32.750834094,23.3559297854,17.8480305204,17.93541563354,17.8747735532,21.2806560212,19.859577373,22.76682414683,16.1752149004,31.3214519553,18.811090403,32.812846866,23.50645851,18.895024877,26.052269286,17.16874282774,23.7556676933,23.4460918698
14.284652814,17.04901517,22.930371223,14.920242657,16.054966837,1e+08,25.840127686,14.317599462,40.3088841649,35.979977276,31.76853238626,13.073862938,23.4199198384,30.673395621,30.026777359,27.160274575,43.345880491,33.73372609169,16.153094242,33.2114260482,40.5515663657,26.199747705,23.066299937,13.227496286,16.736393123,35.0140549778,22.901264427,14.901414441,33.591705189,28.935160731,16.77572996838,57.595969025,26.517068465,26.683739853,23.748690993,24.5172355591,19.4743225239,15.205576753,43.0234800119,33.2842392443,32.9551010542,28.917348617,29.266304214,47.275889993,19.519691631,30.884225361,23.9279893526,32.918123912,21.8986673478,34.6268140671,24.905402436,29.003350289,29.082027454467,26.170457417,22.4184869909,31.0809278385,38.6783567935,25.849955096,23.254389623,25.3420254057,14.972150522,22.581348233,25.0083184125,30.573145246,25.75534746,24.0740393838,20.1989957897,26.764205587,24.447518306,20.589191995,22.126425126,24.3873746306,29.891657427,21.0766302,26.902933992,19.9825244226,20.137435748,22.919279489,22.9498475355,25.0396982992,19.55535942,34.3827432626,21.708465453,23.3863636896,29.474708128,32.57870226898,26.796590277,32.54272012,17.037618886,22.02968627,47.1495140137,26.598401939,29.93515816,31.968124529,19.317909971,24.5596211636,22.392719674,16.094586858,21.8734065468,30.8116934868,27.90901755,29.4438008226,21.7932989591,22.157030368,27.268470836,24.1774885613,22.107539283,25.555985627,29.957616569,12.599513983,34.458412327,44.501169673,80.75812460289,19.903003158,19.0587188034,14.362882057,23.9343907342,18.086700909,24.825334454,35.034517302,40.4976881582,26.987346603,24.278950503,27.6688121094,64.420607974,47.5975768064,12.6945329424,16.1747992871,36.650466517,27.4501877402,20.764318481,28.1260603099,11.835095609,38.0114350315,41.199255249,19.5577708165,23.599240047,20.526270677,41.58086126795,13.918109472,28.2637326476,47.963627463,20.483223163,26.12106013,28.569046346,24.460456275,34.195797787,18.2780849,23.9383633514,42.2849954995,28.925271331,44.0098164974,18.892955214,14.428204338,54.155701502,21.1980301904,29.26880400427,16.409048381,56.585707566,11.1599054066,39.63477045,28.063973966,38.296071642,28.3042620139,12.5887533786,18.6037051548,27.479847963,22.795074851,42.491259362,24.1179632727,31.018090731,28.6394452689,26.292686298,32.6808330886,18.5674284314,18.263201702,22.2852744171,15.824389576,26.69422763703,28.019226411,25.621747372,14.600373478,34.973889844,25.5986786704,12.3161089861,16.52783060527,22.8013372369,16.6792093192,18.733243663,28.12933343983,25.2797604704,44.3349546633,13.318826036,37.922329794,18.88057519,24.777237148,32.235922281,14.89862343312,30.0738593787,24.8096076498
24.103543467,22.318257545,17.778481051,24.001702718,28.181566576,25.840127686,1e+08,24.9987319504,39.9499977766,21.631504243,23.94016478226,22.239007975,26.8623668174,35.568963472,17.618429273,33.272290884,32.668035072,29.39750996069,23.527574956,36.5836885452,26.6134518588,26.322917275,23.152565752,21.86536009,22.44888226,26.4341315668,31.364761142,19.956064952,32.119460101,30.990371764,23.245867523,46.275328186,35.964257593,29.109123536,31.293024559,30.3428111841,28.0927027299,25.8229820262,29.8465789409,42.2839186063,39.3877417692,37.615248247,43.4012248006,31.110317636,25.666300932,38.728506884,33.1635237496,26.063442808,27.6664694458,38.3219133741,30.600460102,37.487944558,40.390000807467,33.1753277264,31.5820500169,40.1310193085,26.0253877073,33.55262658,19.758455433,34.2378487727,26.430008552,25.675130188,29.1647625895,34.169899296,36.687569555,31.8614097903,31.5491952407,30.502145955,33.711215285,29.740055248,28.794550361,31.3587089386,39.782531565,31.696191169,34.007065721,28.2488181539,27.506760231,31.388533855,32.2397675925,36.1995879262,21.218894734,37.6674932426,28.114979398,36.3010426996,34.9733589,45.96082356328,38.171115055,41.512320948,21.74321866,24.849044073,40.5220866087,37.811190444,39.324847992,27.311912092,24.414557446,36.1680302076,25.050251863,27.340964771,30.2950863476,39.5760843398,38.914877704,39.7753957426,18.2270003981,28.956240522,17.897420986,31.6980079998,16.7714755,30.148059341,30.643978305,23.944244351,36.638750407,31.7551977203,58.27042420359,23.400364674,27.1927053883,23.089672966,30.8904472002,20.598402217,24.916176184,26.091163517,39.0551084912,35.759878437,29.274570048,38.6976522994,53.644472334,37.4806697454,21.0365505874,25.969842176,34.504540603,33.0845931924,28.680526884,36.1224306069,25.766906945,39.5800636715,27.586215346,24.5561496345,29.690382934,24.776491141,37.39003590395,23.328343478,36.0716386416,33.17919526,27.53548919,31.397353726,39.500214405,33.697429838,39.657174332,19.227182212,31.9589077734,26.1876425545,39.347384613,35.1611242134,28.4793360798,22.921511498,36.719923334,33.2477683864,35.99909038857,25.08926716,33.642351737,25.6388376462,32.54421273,35.123713547,39.618834697,17.0274465779,23.0412166916,24.0215337828,37.065643906,26.810247283,52.019275591,35.2269527187,37.521121326,38.5540991413,30.430104948,34.4562911026,26.4645501544,28.2286629601,29.6854183251,24.3195065302,35.35150865903,38.448740458,35.10834742,22.714970233,24.503737288,35.0862630484,23.589715989,28.96449116308,31.9472486199,22.0089015266,23.613374805,30.67292756483,32.2145735704,31.1437626963,24.565805634,47.989711359,26.441291324,36.440063197,37.308310164,23.25085536882,29.9217264387,27.4714242118
13.0626105014,13.8706140124,18.4601406358,15.0838174158,19.3619499634,14.317599462,24.9987319504,1e+08,48.1932434448,31.4236638884,27.68600685466,12.9855120998,20.0211509992,37.1850008476,29.2085541274,25.4361326134,32.1414690804,32.08467458909,14.5862820692,32.1628271866,35.0008309302,23.5912222324,21.9625080454,13.3838113154,13.7624664134,30.2073498012,23.5242780844,13.7794464194,25.2642060382,32.5812888001,16.70677743456,59.3183048574,30.2394736334,28.9701231816,24.3478422417,29.2280717705,22.6280551193,16.0430196096,39.7860511953,38.6831752049,38.4478767876,32.2778158848,35.6948096294,40.4725513464,18.0454656104,36.5645063174,30.777601891,32.8541010884,25.9180595352,36.3043835601,30.0990378574,33.2841418428,35.043724031867,32.9759093092,28.2191981473,37.1583332911,42.1968733323,32.2449726414,16.4199732808,29.5743380831,13.4118311588,20.4231481888,26.5742946879,32.6834899214,30.5301487904,30.3713642127,23.6547185401,32.6418961024,29.6892268724,25.2858678904,25.7487427074,27.8748225102,35.5518859016,27.7002004024,30.3488782434,21.2749169045,20.7303783884,26.6713040864,29.0991690501,32.6543679896,14.7373139784,37.783407949,24.4710912412,29.257337783,28.7353076818,38.28010508038,32.3030507754,37.9790131526,12.6174058368,22.6093563244,51.8110722571,36.1927973394,35.7095532464,30.1163678254,19.0768735778,31.3853392808,22.1481535174,14.371720786,22.7999312918,33.3943146282,35.9811174306,32.0591519446,17.5587617406,25.6264974914,24.5115352484,27.4606315606,14.6101051862,30.6747066468,33.7433641494,12.5641593798,38.4953132554,41.3826833806,73.1063477315899,16.7177860164,18.5707843507,14.6938610404,28.7058104626,18.0638904084,22.8147862244,40.1464324964,37.0798636046,31.7644881864,23.5041998724,32.8394341282,64.8219437612,49.4526420268,12.3084420856,16.2119357966,36.3063031414,29.294072904,23.7800686522,30.7636098353,13.4176462304,37.0773733514,38.1867611114,19.4224633417,26.2232552564,21.8800817924,37.89348965435,14.090715299,35.3962362236,34.2090781564,25.1299039504,29.4919673144,32.8834114214,30.1617427024,36.9034551842,13.7702536978,29.7291745838,41.1739743619,34.4639136014,49.0352097258,18.3110989258,11.8066495632,48.9091436774,28.5622408788,34.62574350887,12.8467179428,48.5136323884,14.245491087,35.4385831494,32.2296942104,36.6625266678,22.9517416083,11.952421232,18.4168600772,31.7791701584,22.1422020232,48.7923967584,27.2931857251,37.2830982114,33.7746674744,29.9781683256,38.352147871,23.9459260588,21.7758301154,27.1579611235,15.5832858628,30.63167067843,34.4632285054,31.0492247994,14.3149663944,32.5073517474,30.6753760138,14.703734157,18.66938679475,24.0052479913,12.7805883196,22.2207022216,30.38224814103,28.1674280298,35.7575744907,16.4812809854,42.6230348212,20.3080856168,32.4634025864,37.7354166646,16.34154870746,30.6250006621,24.5982205932
46.2665501876,51.8207325834,48.9223597124,35.7523722551,29.6014343337,40.3088841649,39.9499977766,48.1932434448,1e+08,59.6140880302,26.83769867714,42.7708849885,31.4591622508,20.3194306145,49.6976558935,30.8113098758,72.6755467413,28.23389657649,48.8555531213,23.0410598479,41.4900869679,37.5804733481,27.7372776198,41.1542798842,41.9350578093,25.8673665406,33.604984336,53.0509353654,69.2724474932,19.5911426234,27.12875562628,48.5748022799,22.2875561061,31.7063815295,27.5452980219,24.7565738059,30.2525205043,36.3318197225,47.6856019571,21.2243529579,20.7461594592,25.4008659242,25.832340607,44.4086156744,40.6036042232,29.8600511899,20.3426304373,38.0741609178,29.7913764093,39.641393326,22.6878659762,26.8335883655,24.878067875033,21.2840841882,25.3521142926,25.0334713123,34.6745520772,22.3055414861,27.8466134854,24.477179335,31.2256148357,30.7905160187,28.6404502176,21.3349668269,21.7893498182,25.050547085,24.9248355814,23.0549603555,20.0105833871,22.6821093058,23.7010567118,27.5325127108,23.2538655282,28.8575036618,27.0603703812,28.3907247664,33.0024432802,29.5976192338,22.5100576699,22.9889968539,41.1705129015,21.3150015102,24.8293707011,22.7850387993,34.1534643355,26.72751870958,25.0342532305,23.5172319463,44.472556847,31.6306095535,40.4797739484,24.187557636,26.4603632591,27.6024495433,34.3922021881,24.3217490681,25.1482997182,38.2184932342,31.9618969615,26.3992900021,21.2001498402,28.1778774072,41.8171333052,29.3148213142,54.8122443763,23.8096846358,38.1198068324,26.5994874762,18.2435839692,43.433516072,21.8044499089,45.3708963844,50.56968144138,55.648885861,63.76557652,41.0757127282,20.7174858441,37.7820904882,27.7173268646,34.309825975,27.2423671766,19.1932325035,31.1091486841,25.4790350714,58.6252223122,42.1135224917,40.1058271309,41.7112203027,23.503956103,24.2449028882,27.8212338068,24.0073575243,46.9020299675,28.4924014675,43.8195172426,25.7476096876,27.0100567751,27.7026125075,26.460407337,40.3024387833,23.1579735284,61.6703835552,25.8994706472,22.0106070215,26.6140534105,28.7893771563,30.8064807915,27.9565060261,24.2178292304,27.6651779488,23.829281633,29.6872588816,39.8980206074,46.0428240926,50.7551221464,24.7954217477,22.03856545503,46.9358428928,48.9573650152,41.6763090116,32.1048129592,23.2425653946,31.865481302,39.8383778589,54.2650539205,47.2640382034,22.9717769252,40.1125678361,37.3949746701,27.3017439965,22.2844251167,28.4179286398,21.8272516434,23.119699705,24.7084889906,28.15619897275,23.9351709724,26.0965199151,24.10236613139,24.2065909455,19.8129720828,40.6211569056,47.6756482885,25.6437302916,43.5214939222,34.79981743897,25.122132889,35.9134246869,33.9061752292,24.53998681043,28.3970508574,33.8304696074,44.277736331,32.2914868472,36.1115501023,24.0565388532,19.1783431145,36.82066594748,21.3577065414,23.8438680286
32.122892703,32.367491723,24.656303139,37.130120791,40.308228254,35.979977276,21.631504243,31.4236638884,59.6140880302,1e+08,38.25308615826,33.603314353,40.2550513834,50.172792792,27.375081987,46.337283076,35.766370576,42.73783916469,33.952057455,49.6212956142,24.0423149108,33.106793021,44.243437381,33.562206482,34.671931164,35.4460281168,39.773478756,29.576318755,30.774688077,50.9967559275,35.81058798192,49.818284542,41.681185327,47.01707426,45.769495446,46.8857599821,43.8377937159,37.6802926602,27.2610664849,58.6258839893,56.7960722142,52.616935806,58.4760591126,35.160029302,36.916735591,54.317943742,46.2140343156,28.230822831,39.4894921738,44.0082259501,46.412377433,49.390215932,53.916391691467,45.7394867364,45.9441053929001,55.6913313825,33.7824696321,51.002652991,29.903591411,42.3844824347,39.881487592,34.377347666,44.7010477255,53.271524714,48.892239426,44.8407934583,47.4550429547,45.031596839,45.396941362,44.822578916,39.520629786,46.3972569746,55.769142127,46.963925685,50.010033113,42.3264522498,39.397553457,41.366340373,46.4144872795,44.4451755462,29.074843071,53.5180354886,47.39431511,53.3941519978,47.066345406,61.21414332128,50.07606862,58.317436844,28.977032797,36.200121191,37.0379078527,51.262088041,54.062451298,33.907675487,41.618330703,50.4079928266,42.152755339,35.604628134,41.7916002284,53.7737930958,52.638630628,49.8600641266,23.2002289521,39.917365838,21.925570048,50.8919150903,28.466191906,42.646330144,45.943342853,37.068588376,56.037535214,32.1184177626,72.44349270869,30.64010837,40.8152168843,33.404332236,48.6084256482,33.478815458,37.140755148,34.225390704,60.0832707652,48.493090335,42.912144949,51.1021355434,57.246415894,38.2957956894,32.1673719174,36.6145660997,54.564949409,50.8152788674,42.172459414,47.0813678309,35.597314963,50.682332366,27.199986478,41.1641902105,43.94878557,39.026699499,54.05997543195,36.475874363,54.5692627976,35.715393328,44.296527022,46.03869045,48.809888419,45.551950596,57.855765073,31.734427314,46.8108682564,33.1818495585,54.083445149,47.0131929904,40.3686947552,32.115721228,40.036400736,49.5037627522,51.93329775027,31.024403214,39.783437056,37.1666904758,35.17764224,53.915202127,54.398360348,28.3705318339,32.6408345046,33.5686079108,52.02520998,38.834945383,71.230256969,48.2089071847,59.3490543320001,50.8404882583,44.065270905,52.8993247886,40.9789343604,39.2289178611,39.6626191041,34.3807185747,50.94934727803,56.707775459,48.050167584,33.262399581,27.881419237,53.0771496292,36.9395724144,39.73727698127,49.2136352079,29.7617525892,36.262567871,48.64176729683,46.3779088564,31.8459907403,38.314339855,64.195028028,36.513626785,47.221616143,54.030941529,39.19371965982,48.5660871747,47.8074907918
30.62703567926,31.82103910226,27.13228470726,25.87429958626,23.45175006974,31.76853238626,23.94016478226,27.68600685466,26.83769867714,38.25308615826,1e+08,29.30733894126,20.79775959914,22.11296066116,33.91893637174,26.95041514926,40.68648259626,15.60024191983,33.34666206926,26.71652206484,30.18904347746,39.67409592826,19.98297265826,29.74452644026,25.74241319026,22.99402330352,25.79590556274,35.50281802326,40.25813976426,16.32080279704,20.88183177222,48.82936729774,21.86493289174,29.98917845074,22.15167882374,20.58120886224,24.62251599194,28.71515578746,37.96978722716,35.07978729004,25.24865771394,26.65839581514,31.77262424454,35.66889136026,25.16186241426,29.57285356574,22.75777589176,28.75355253174,18.44610474166,37.94827713036,22.78350259514,28.76154414074,29.714529362673,20.70897417774,21.17991871204,35.96582580564,31.51820547308,26.48425882814,27.98128094126,26.24638756644,24.78661404626,34.24820010774,24.25487502614,28.91260647514,24.10894009714,20.05107278374,21.83338235804,17.34734975214,21.63378962074,23.66886547974,15.54983036074,24.60057865894,36.12933460114,31.44416573974,25.4577520052,23.90529779846,23.68665113526,23.45925612026,20.04018699802,22.86916352554,30.92946820826,32.91612068744,25.64454159826,25.45483721074,28.31717720926,35.75715054772,26.06304865292,34.04969421214,24.74003454926,21.55771581826,36.89285280004,26.33553165274,32.36914292134,24.60658635106,25.46451271026,26.03539232634,24.67622660914,33.93505715574,26.07008932086,28.95224306674,27.95583825574,25.26270198842,33.35800729636,19.34302311126,37.35399175426,23.09278340038,27.83619797226,22.20873021674,17.96680551674,29.75587576626,30.22972791174,35.48183751174,46.28565626827,27.66433235626,39.04740219766,31.51561856226,20.76828302544,22.56221713826,15.80064708026,27.53051543174,23.20826385384,26.37505236674,22.42073353674,28.16241565844,61.05559988674,38.93353037474,26.60960547286,28.12144611886,19.69401032774,24.09284435004,19.83953493974,24.42737518982,34.56908151026,30.04850585816,33.74854065926,25.76067484324,24.61445732914,21.38494895626,22.68853256624,26.37264778826,29.75647266854,31.93788197226,16.57962186226,24.46752358374,25.31779777994,25.25055892174,32.73789512874,23.40421446226,23.97331880834,28.14518953284,28.36785055374,26.02401720322,37.50300683654,24.30106899426,40.14569253626,24.91658675666,27.69000514618,32.24782548226,40.12597878126,31.26297982746,28.10878289418,25.65268046874,31.02917236574,25.34410603834,38.31257004466,30.83391573906,24.72024091574,25.23802524026,50.88335908674,24.00352498924,35.78745754574,27.45373436144,18.80831910874,25.11638294334,17.88682786714,25.52623235916,17.02873302084,24.60505889746,25.05292313265,26.48578176014,25.88473891184,25.08383962826,36.14549324126,26.45316455404,28.49781605286,26.4061930018,16.04005076804,28.30945998506,23.49395194826,26.62847889748,21.40169728694,26.75773115804,32.33319546326,42.56518468514,32.51691885526,22.70931901174,26.62683186074,28.53788335508,14.81223205698,24.14245325954
12.686477644,10.601742867,20.311811128,16.797053832,17.228985832,13.073862938,22.239007975,12.9855120998,42.7708849885,33.603314353,29.30733894126,1e+08,19.5007448444,36.064001482,32.253781854,31.931539704,31.63444249,35.10737471969,10.614345829,32.8217699452,35.9408624412,23.388943238,21.462877004,11.427710534,15.306481872,39.2455609538,27.352799197,15.223771706,23.697826005,31.634433129,15.21344853608,54.245782715,28.351542774,26.732746038,23.1804168405,28.8982430051,19.2359209829,13.8910429144,38.4803033999,37.4473606413,35.9829519652,30.066761723,33.1963438356,39.588779582,15.653020976,33.070736435,25.3862865396,31.655382156,25.6416135958,30.6580717351,27.657812032,31.993982835,33.759840950467,30.1965201569,24.3716845049,35.3368017585,36.3987229213,30.091136373,18.822842147,27.7162071507,13.981632004,18.440423128,22.9129773925,31.593970489,29.698725054,28.6738135983,22.0380163887,30.793861186,28.413106304,22.899453478,22.958444918,25.4833512926,34.421275982,24.401661155,28.241210179,18.5412615372,18.001108018,24.604659505,25.8549632935,29.7019883032,16.244369863,33.4432099316,21.347454419,28.1929339166,28.830796308,35.64079420298,29.498717687,34.145392692,13.228073375,22.303731633,45.4654195487,32.871484375,36.063814611,33.350159433,17.90143691,28.4543568076,22.37976006,14.303438957,20.486659572,31.6478907868,31.795775364,30.3852752946,18.9268765101,24.25985088,29.455683403,25.5120043958,17.724576464,26.26089836,30.409231317,12.966865805,36.43942873,40.615417848,70.74485017539,16.550963161,19.9095445993,14.679531351,26.8773113802,15.263999037,20.255847803,36.411984298,45.4171826422,31.142134745,23.064209108,29.8338637194,65.249653126,46.3193466204,10.3340923106,16.0230021842,40.595638039,26.3231660858,20.787489105,29.5275046339,12.927190925,40.39266441,36.571709595,21.2551479355,24.16046524,19.845352961,40.60082851895,15.047899066,30.6662783246,36.846145152,20.784678025,26.894702743,31.705284609,27.753950128,35.233092321,16.00979022,26.7307475964,40.3431630635,33.873052405,50.2180809024,17.4451966998,14.464255211,46.737695935,23.5944486064,30.76143401437,12.447376143,44.383009555,14.3327728478,36.641944573,28.451936376,37.078231353,28.9936751199,12.2611962136,18.6774974642,29.271634302,19.888149377,46.702907563,28.0512885147,34.097153274,33.2266395813,28.006735329,33.6139823186,20.1394577714,22.59421285735,23.5834167541,14.6910550724,28.52239777703,31.046295376,29.443238238,11.735224822,30.830669184,27.1932271104,16.7315955116,17.08893712335,24.2391451999,13.8747958246,18.364004401,26.60229777083,28.5348562484,41.1373834163,16.349808051,42.633438884,17.874207256,29.991834795,34.571462174,17.43496729736,31.4372120457,27.0413325278
18.8740288354,20.2987390134,30.4875150444,22.1829456684,20.7998639574,23.4199198384,26.8623668174,20.0211509992,31.4591622508,40.2550513834,20.79775959914,19.5007448444,1e+08,28.3503955614,36.677931167,24.8757540514,35.3993201914,26.87181392411,19.6830596384,28.1341219644,30.9316594232,34.3082415354,24.9420943964,19.7361844114,20.2365753754,31.0601756646,23.1005309104,22.9136003344,33.2798008324,23.2555710434,18.90124266386,46.0303830454,22.9700157914,25.8680633724,22.0461577619,23.2908593813,21.2951488615,21.3014753676,37.3414400769,30.1593290669,28.9687468016,25.9357754164,27.3727119242,32.4279243954,18.5338787414,28.1464443018,22.4272355318,25.9772004134,20.6482666126,27.1681781352,24.2975107654,27.6104320934,27.730398885933,22.6158353361,23.6903723405,31.1647243687,30.5157690673,24.6811765334,30.2260327344,27.3062753677,20.8616946852,27.3270533204,24.3604870104,24.5549017014,24.2206867454,24.2112164276,19.2347497857,22.4874683774,22.0630026004,23.3190982064,22.1443039964,24.0086026402,29.4724055664,29.2957252054,24.9942773274,23.2152156464,21.3109193704,18.2870000284,22.6568214909,23.3126176732,21.5895369694,29.105566184,22.0865450034,22.7935085856,26.9105148794,32.93382518938,25.6771967096,30.1083451464,21.1249644944,18.7096395564,35.4820722429,27.3524513254,26.9954555314,24.2222767774,21.1904881394,25.3874945628,23.0923860604,23.6208029024,22.836543099,25.9584855476,26.9551991334,25.1882656702,27.661970751,18.6299114124,39.4790032474,23.9712131565,24.2135525894,23.9998684294,22.3910497884,20.8673232034,28.5032796294,34.768465086,44.85681541891,25.3939162614,31.8367686068,22.5334774664,22.5559546252,19.8309155694,17.1536531364,30.5993294004,27.5409119612,24.3605411014,21.6390902538,25.5799919422,55.7063869634,37.663803162,19.5164404156,21.0216743162,26.9367780284,25.852614276,20.7844939014,24.7725714695,23.2147050192,28.0619447609,33.0828398524,25.5765728287,23.2205039434,20.3419246844,24.19767412545,21.9628072754,27.1256094152,32.0454237754,19.9036530554,26.4200835244,22.7774203724,24.2840220574,28.8540085804,22.8814207324,24.192625951,30.9699140119,25.8181417904,30.549778507,29.5457801892,21.7757294344,35.2794554564,23.6734526172,23.80806070273,22.5195014254,33.5951572814,22.0220571286,26.5118819794,26.4004928224,30.7794028704,36.0369315223,25.2920395178,25.8297934802,24.3329695636,20.0908546736,42.7005093114,25.4643640347,30.3688703368,26.1669060081,21.7649302644,28.057906914,20.768958006,23.91999114795,19.1057809613,22.4041898415,24.79611768937,28.0867069884,23.395273365,18.5869284764,27.6620250148,27.1232635292,24.4899729941,17.4821042094,23.7042711586,23.1674269966,19.0470576254,26.24227283857,21.333931795,29.2225389857,24.3255473334,37.4498232184,27.2088379284,22.8434390904,28.6401888224,24.76036756922,20.5161839377,29.9963035856
39.083783713,41.68856497,36.795800661,30.708019606,21.133215186,30.673395621,35.568963472,37.1850008476,20.3194306145,50.172792792,22.11296066116,36.064001482,28.3503955614,1e+08,38.457305607,27.906279571,72.343307218,26.59345820771,42.611852156,18.1459979995,41.9708579002,38.003593166,24.071260417,32.978831573,35.060862536,25.7764552884,25.762863366,47.087829744,67.28174853,17.500497765,23.90696049208,52.993566494,20.304775559,31.067797847,24.9132111855,15.8469747869,25.1000217616,31.3255296968,52.4162510829,21.5798597253,15.1093205456,22.771035016,21.5621691076,48.87652833,36.830526983,27.489365534,19.268145198,36.124060184,21.4238971078,38.5015467107,23.509795419,27.870605229,21.681692998533,13.5373735434,20.0754630405,24.3636465025,35.190626917,14.662065053,30.735631796,25.1161982966,24.586589002,31.748140142,25.699801327,21.053732824,13.900278713,16.8535687207,21.1810925773,12.460973834,17.172810768,22.265015928,16.748938401,23.0696781882,21.133444584,22.432028375,26.151235108,27.3331930752,30.500222218,23.646543387,16.1569044835,16.8503204238,39.396488844,23.266078208,24.498975573,21.6683781484,30.881774643,21.5550343822,24.126978406,19.0022264,39.667106223,29.288927574,41.7765896223,21.153379663,25.174890408,23.932075323,31.728606163,21.0852894744,23.979404711,33.378884037,27.4666937424,26.9157756494,19.315606124,25.3341004898,42.9951104071,22.217353701,48.082632898,21.2928133714,36.691629698,22.816591196,15.649531283,33.303427386,17.522590151,47.2690522986,66.23114199803,41.469366618,44.6987321043,35.586852285,23.9374715533,32.221275159,22.047814629,30.190621471,27.4397171478,19.203306302,26.859185808,26.3824684046,59.299350382,45.235253093,31.0001920496,36.5164652526,19.84975973,21.2563734044,23.742295003,24.7751246224,34.950640531,23.824466321,45.316415802,22.3427972965,24.544287571,23.643172861,26.19457576995,31.687774937,22.6897801228,61.896882959,20.35811134,20.333674586,25.986751939,24.911468106,28.105105031,26.046834149,20.8010672356,31.121143678,21.748045673,25.5268350532,31.8182869232,34.738020964,53.47191781,18.1117525406,23.01274135233,41.339364034,55.178945815,30.6839858228,30.633549646,22.84846244,32.642488556,34.0394829969,44.3336364446,39.2116966542,25.142040806,34.496332766,39.205664503,22.1816790463,23.625421852,24.1244195583,15.33389582,14.0939784178,23.4508902524,21.6300048851,19.9141104526,25.1116733808,23.63647083609,22.564471776,14.2703726536,32.570614209,46.120561903,24.434805472,33.5927005426,29.79173178527,19.8313581595,30.7748064628,27.861071673,23.52187699666,19.5483819404,31.86286133,34.104161715,30.847196993,34.509696529,16.206809559,16.168100318,26.11629986718,19.7849439523,20.2557968178
29.66801465,33.297686523,19.578914505,28.677201257,35.151704856,30.026777359,17.618429273,29.2085541274,49.6976558935,27.375081987,33.91893637174,32.253781854,36.677931167,38.457305607,1e+08,35.388935969,43.667235151,35.10294886129,33.054300504,39.35550802,36.1641763388,30.526807971,29.430952609,30.35118764,28.773296624,28.6260095016,35.348869514,24.874582103,36.570990522,38.5610705975,33.30341869108,53.774493576,37.979995358,35.543406172,42.3828094385,34.8818926764,37.0482170239,34.2995182102,39.0473086039,47.4234770976,44.2145995432,44.170258313,48.5818461034,47.382853787,33.799876481,47.054415375,39.7498393804,33.792820482,31.4129534332,47.7413103701,38.964056642,44.205091142,44.702283120467,38.2748679679,41.054316772,43.2281458475,36.6639458537,38.863876804,25.849987261,38.4829784483,32.983785216,35.01954142,36.3274661385,43.737145361,42.366989842,35.4368150913,38.2998179637,32.38705025,39.980026091,37.883002221,38.620842709,41.4061314646,44.613048169,32.69893079,45.973482234,36.3848400022,35.309100013,39.550478499,39.0319420835,35.548221199,27.300107609,46.9794851396,38.599242661,45.1194903216,41.780514139,51.74163387358,42.601221418,47.667395151,29.258001408,33.471677948,42.4444167283,41.041377401,47.124840045,27.758902882,35.288771166,43.0146946046,28.832488529,32.17556408,36.3713373166,45.7434618928,43.471200715,43.5161275046,22.3095580041,34.101037968,17.234314724,42.5365398728,27.167798129,34.765268934,37.197886161,29.460945943,45.365507556,39.2859980863,78.69477088439,25.612677025,25.3076594304,29.822800685,42.1020625658,33.033339186,39.1033245,32.752290107,50.1633984832,43.764171362,40.791218326,45.8712971406,53.870547473,44.109473483,29.5126842562,31.2808517326,34.088572865,40.0030184982,38.850885716,43.1205795999,28.343240204,43.999815341,33.735628004,26.2612086695,42.809203019,31.469317816,49.77584592595,26.733294051,45.4128781056,46.013248525,36.609823267,40.516538326,47.037149497,41.002050697,51.850229923,24.965189359,37.5154804546,33.790500396,42.593104541,34.2952702848,34.8420852928,28.646699005,48.039735811,38.6362604334,44.80840282227,29.397609047,54.442620751,30.0828801482,37.383563115,44.115537402,51.414384329,16.4465871412,30.4930125858,31.7549489806,46.758385985,38.312745424,57.024663803,40.8650494507,44.550546401,45.2060404751,34.461090759,38.3279650414,37.7259225516,34.5523738759,36.4093731821,32.1760093922,43.69589061303,47.681801492,40.1068756504,31.90240779,33.852460864,43.3095152234,27.2788417076,38.82136078554,33.3269553736,29.7364363902,32.881042916,41.19367090183,36.1704850344,36.9822828845,25.564050169,51.684188502,30.409559127,37.841820398,44.097258794,25.81438125882,37.0953424123,30.9701203568
28.003624458,29.382490578,29.637892788,26.678270996,24.4485493,27.160274575,33.272290884,25.4361326134,30.8113098758,46.337283076,26.95041514926,31.931539704,24.8757540514,27.906279571,35.388935969,1e+08,48.51768061,31.60724488469,29.735572217,22.4270582682,32.5090550262,41.077681461,27.444430925,27.630898483,24.782344,29.2294423468,23.581214508,33.580922387,39.881175868,21.703958021,25.16610926208,54.668361711,23.650427142,27.671131584,24.085309023,25.1930676941,27.9786686439,26.0276056792,37.2306644543,32.7371030296,33.4160772272,25.744157293,32.9395966342,40.35237381,22.045567186,31.029491542,22.6378249136,31.350401096,22.7271121928,34.4968223251,23.703053181,24.480701554,29.908873172467,26.3419146883,20.6398032859,31.23475798,40.3380071805,27.250562225,34.881603104,21.8107317457,23.100724396,36.814436232,23.6057098775,32.336061764,23.325468678,25.5269760233,25.9061748367,28.014164457,24.530726052,21.366441156,23.720184711,25.6746066746,33.014769738,30.744438932,25.534980786,23.0976894872,24.400895639,21.084861904,23.2757379545,25.6613034582,25.804118586,30.6298152432,24.569852645,27.6551905534,25.819831526,35.00931975028,24.196466318,36.555264792,25.808443407,21.773784408,44.6010187227,26.427112466,30.968387836,26.362792952,26.073404068,26.7420013946,24.306937388,30.719082359,23.853317085,31.8091380318,27.591330932,26.2860655546,32.9916568781,23.293901951,40.935503355,27.6593218729,27.60565674,23.676637188,25.352511293,25.836484072,29.289667512,36.2942866526,50.18601418539,29.939399558,38.4956394577,23.958596801,23.2300202822,24.868303008,24.527891649,36.471801893,19.9365457282,26.624542361,25.881952362,25.4207575344,60.381281943,40.1903136054,28.0473104686,20.5256602346,33.944003812,26.1042246762,21.292732012,27.6824348699,26.404484215,28.822316661,36.204263101,24.4485915985,26.250727314,21.373568127,26.43263899795,25.959937468,26.7496581696,35.025053812,20.952227344,23.327289947,28.574020243,22.616062836,31.931594418,28.618104154,20.8107053124,42.8056931355,27.494060468,30.9088286984,35.4105016418,26.286582193,42.387900174,23.9707314146,27.38389004467,30.368173458,43.33579612,23.7551141982,29.24663664,34.926198757,35.94417899,33.1251358599,32.2828653254,31.9206676588,28.123294328,22.719586368,45.390073335,24.4937311067,32.607206706,24.8483781638,21.754816391,35.2583176916,22.5714969524,24.74483134945,21.2646419551,25.5693149222,25.05737381503,29.480970465,26.264726822,25.604294974,33.07177562,25.8361096836,27.2368344066,24.45412626654,28.8964374559,32.7132325848,24.26755152,25.48340595083,21.9989730094,31.942348415,29.220840651,39.352684244,35.569166397,23.396741479,34.95054559,26.85666316782,24.2131143537,25.8686505438
30.582424447,28.910898641,38.245057755,39.024959573,48.14470632,43.345880491,32.668035072,32.1414690804,72.6755467413,35.766370576,40.68648259626,31.63444249,35.3993201914,72.343307218,43.667235151,48.51768061,1e+08,46.65961892269,29.271644987,58.2088950512,30.6601029418,35.769104676,41.780093405,34.951620303,33.048551364,48.9069089408,44.111105382,29.076515725,12.295495032,53.0532195135,34.94141679946,55.347442917,49.894662557,42.333734486,44.1815390035,62.1646773981,43.8093652809,38.3314826412,29.9221993389,66.0238021733,73.1658629772,53.453598965,62.9655445752,24.543815586,29.638016702,53.282666788,53.1063744126,32.10215006,55.5228678888,35.7350721561,48.031907873,49.423963378,57.917365321467,60.7983533713,47.2197035089,63.6671125675,48.0603209645,63.495899057,24.556422292,44.0648534367,43.155961319,31.481476453,41.1841253785,55.359562309,59.734816474,63.8108585813,56.1384959507,63.69837793,54.861054396,48.076091676,50.928309772,45.7273269976,67.38478593,60.652869198,46.518308004,37.8292973379,33.825461781,49.31198953,57.8855663685,63.8172472072001,30.402711448,57.5383441846,41.125409163,51.2360604432,43.655470221,68.79526403698,50.199598888,72.527459747,26.662335632,35.677426078,47.7274061087,59.57025747,60.130589426,49.596527588,34.026034498,56.3141073836,41.653273437,32.663215308,36.3409712886,45.2999444778,56.415303144,49.9386513986,27.8293261691,52.553082663,33.130871942,44.5994846633,26.17882576,44.35443402,58.798947889,42.233581653,66.118457392,32.6690956073,35.23094502559,28.42294899,46.7141266097,33.657008254,46.7504319382,27.900563374,38.992442618,50.077325155,57.3141233532,58.13424434,35.666956105,53.1628029164,78.4594102510001,40.8136357944,30.7643342742,29.0449881177,60.216202003,45.4526180476,40.312719593,45.6591874359,40.420695708,64.527203141,33.571774207,43.8226875065,38.006275544,40.540980738,56.00364164395,39.353826829,55.1366429706,15.602603962,46.074343288,49.890632506,50.408620099,47.871775221,53.991750018,24.496111635,52.4059914024,44.0137132315,63.828012967,66.0319232186,42.2495860318,35.147361124,34.380396907,57.0877226358,55.60668850867,31.306487611,19.47988484,47.1272170962,45.005888393,48.689342283,47.876748981,44.6973629869,35.2456455844,34.7310597328,47.97405435,31.626631408,72.374899574,49.4130520337,64.220701681,54.3979906577,51.958672682,72.5781185076,36.9602355704,59.63845625545,50.9256925051,33.8778120151,49.84504750003,57.649952882,62.020628879,32.630421236,30.494394754,48.0630846238,47.4348433537,39.30465860627,54.2944040079,27.4602293932,39.049398886,46.52403070883,58.4643323164,41.8689600843,43.37865068,63.906054778,36.065396937,60.461036646,70.841113751,54.29583408582,50.3064968297,45.2792344098
36.34786784769,38.74189166169,30.65878506269,29.47804451669,26.20099500298,33.73372609169,29.39750996069,32.08467458909,28.23389657649,42.73783916469,15.60024191983,35.10737471969,26.87181392411,26.59345820771,35.10294886129,31.60724488469,46.65961892269,1e+08,39.15533935569,29.99127972129,35.86359138189,42.29702029051,25.48389144369,34.03182737369,32.40976948469,24.77750466169,26.99921014489,39.87638721169,49.56070207269,20.83480093589,23.94507538537,45.66720392929,25.40119234144,29.39140881971,25.45392984542,23.44817465299,25.59031173029,31.57062196489,42.32271135759,35.12739652201,27.17669795471,28.27442421011,31.12456690531,40.63647238869,30.32649031169,30.47938255289,27.76886307202,30.58581619771,24.66149869289,37.21418794781,22.68583199429,30.45747809651,29.899501983243,24.19521756369,25.19901423628,35.15818828443,29.47591038792,31.23711800811,28.54361951129,24.26456497912,30.20301331469,36.56555421771,25.10275575761,32.67380081524,28.16330761411,23.91381661292,24.2888770587,22.94608655029,26.30206402489,26.20932309771,21.17029811729,25.29449770569,33.99366643751,32.46787573989,27.13449167649,26.58636047998,26.87413074469,30.77960727569,25.63528168899,26.12491565991,35.62765313669,33.31267541811,27.47217953838,24.09829521269,31.12674917229,36.82409996549,28.25678210589,34.21533920811,34.08288806569,29.07299603269,35.08364028101,25.98725034069,31.73971848611,28.42078013629,28.62065817069,26.70377287891,29.15217765611,32.00194353671,27.97161784569,30.41017514813,28.07023236629,28.01478528329,36.84633698579,26.63662331938,39.12346625269,27.12898147953,32.50301650069,23.97776879989,22.79351294769,35.29514219569,31.76100273351,39.86052556889,49.42396100725,36.52723328769,43.62149070329,34.10445562769,22.58083678059,28.24982324869,23.40554669269,27.42055306402,24.83943683249,28.62584631289,26.50157274389,28.70649226069,59.13802544053,38.8574075314,33.19820232829,31.47158936329,20.65931296742,24.43126877769,23.70468661529,28.38367962139,37.76329875969,33.30595503061,36.28416387629,25.54935724119,27.22120616469,23.86398636269,28.31344218424,30.07188175169,29.72191282033,39.25060669069,20.91530448729,27.99218207313,27.70636895729,26.97116028569,32.59500660351,25.91896856669,26.33077003678,29.73209097112,30.73782676851,26.79376505651,39.42417006111,30.99407084369,42.19156091851,26.61886061451,28.63498552312,38.76168002069,47.09352558451,35.17170238549,31.01269405589,28.32119833351,30.72102115175,27.96717328983,40.90334708489,34.89270847989,28.18802441571,30.45243404569,49.43244649535,26.57019243399,33.82166745826,26.13962179899,24.16545098898,27.04406703709,22.80793005409,29.43412375039,24.46777577271,26.98339077009,25.12881622526,25.57868761311,29.60960613731,30.11817288269,39.35559892969,27.43075700191,31.59448206429,31.81560833523,19.51105557189,33.25046135149,26.67752500469,27.73068745394,25.51985644369,29.67230058219,36.33077559669,40.09876365411,36.34604112351,25.00764236571,26.67620744271,32.34836818695,19.62525868341,23.54000682269
13.229601736,11.480264247,23.769078523,20.321272704,18.889671974,16.153094242,23.527574956,14.5862820692,48.8555531213,33.952057455,33.34666206926,10.614345829,19.6830596384,42.611852156,33.054300504,29.735572217,29.271644987,39.15533935569,1e+08,37.8251873792,34.7212124622,25.230475113,27.641128502,15.231031169,18.73665728,40.5554356598,28.980986086,14.289333469,23.396354317,39.018508994,15.47053806208,55.873497579,31.672731388,25.588537756,24.9634884045,33.7782407461,20.9399869479,15.9807811802,37.3659032999,41.1759522433,40.8794661842,31.276380668,37.9552584046,37.693722663,16.693840023,33.79389316,27.8690442676,29.647194622,29.1331949538,30.4704347931,29.831398316,33.00726372,37.107692740467,33.6592322769,26.6959883719,36.2355059105,37.5473836251,33.37717954,22.297248971,28.3954076897,17.624333852,20.166981378,23.9247893645,33.454984555,31.88771395,35.8222718368,24.9992760867,37.139821588,31.654937165,26.056615631,24.371358498,26.5501682266,37.468151727,27.418550265,30.813114747,19.4073241932,19.442519003,26.851644313,30.3067834805,34.1797957942,15.883162441,35.1262840716,24.470365041,29.2540687976,27.928934707,40.44565046898,30.704318933,39.19603641,13.465318021,22.985436001,47.9113425677,36.083657869,36.836863316,33.890357765,18.858634928,29.8249735836,25.482508902,15.383798277,21.2811982572,33.3721325768,36.179094082,31.8576618716,19.0674555991,28.335151618,27.163313725,27.9062456553,19.147926733,29.905963169,34.099222996,15.343972838,39.741460351,39.0097578054,69.51527647039,17.643166559,21.5883097934,17.599108818,28.7204149332,17.642969358,23.191168101,38.240481594,47.1967364302,34.801288268,24.60247018,31.5640563084,65.434481586,44.7660393594,13.4485369606,17.8815800779,46.29380765,29.1192837784,22.012043453,32.6160591519,16.066198397,40.939449461,35.535416863,22.3706335195,24.979837321,23.032186299,45.70434831895,18.420511578,34.1792223016,34.025637123,26.329581416,29.783378401,32.088936112,27.686681446,35.607982261,17.62101177,28.2622554694,41.8035449725,35.571416666,55.6741432604,21.2337631804,15.611761152,44.795885438,26.7397133124,34.87581025587,12.571662163,44.559178346,16.6307364998,38.143939984,31.783995668,39.20066867,33.1982814489,13.9181989156,18.033241178,31.314081353,19.202938682,49.390801635,30.5919745577,37.447578025,33.5023399086,33.835198245,40.9817222196,22.4548889614,26.83712605735,25.2395163661,16.5419183676,30.16259075503,35.157899311,31.799930026,13.32291429,30.589365305,29.0717859384,19.5842527056,19.03721476481,31.0015829779,15.1191582716,21.868226023,27.55608923983,32.6076007064,41.7665036653,18.924543245,43.905995282,19.779655091,32.189828795,42.019969716,21.58251441726,36.3064668067,32.2061821848
32.9440590282,37.2071328702,34.7213460972,33.3792760422,24.3465066522,33.2114260482,36.5836885452,32.1628271866,23.0410598479,49.6212956142,26.71652206484,32.8217699452,28.1341219644,18.1459979995,39.35550802,22.4270582682,58.2088950512,29.99127972129,37.8251873792,1e+08,39.3418924518,40.8682338962,30.7477073182,32.9835193562,35.4703013702,29.8701438542,23.6378498982,38.5633897352,51.7647822722,21.5973019391,28.42537317782,54.2737919012,22.1247994526,32.4614667536,27.6275286945,18.9430761573,28.3936443231,32.3191285224,48.0440652213,24.6328777789,20.482135172,23.5510664014,24.9378387606,48.4774428732,36.2073598362,28.4923884038,19.8378934752,34.5326298656,23.57744237,36.6821333326,24.873456877,28.702114512,25.245595345801,21.3335891488,22.2304289508,24.8645378897,36.7567451159,21.8170164366,36.3658752042,23.2452516135,27.9805573542,36.8024564026,24.764900002,22.8817959906,18.7646037316,19.346656626,25.0507700015,19.1723862014,19.2255307886,19.778534107,20.8852700774,25.9539966802,24.4598861608,24.908055051,26.104245781,29.7069184754,30.5287387302,25.2037410832,19.0607049808,19.1730291782,39.5331105362,24.6671108802,25.1151710562,26.8652239194,25.7755035582,27.39851600984,24.9150971986,26.3290320638,32.8572180182,28.6619806162,42.4259324455,22.3244209526,27.1573252878,25.0518909526,34.7151275062,23.9964548232,24.4474501854,35.2132697936,28.8483035548,29.3780219208,22.0400163908,26.027253568,41.1663844993,24.6409661302,45.2717976902,24.4057486417,36.3665000122,23.8703957746,20.0056335656,34.5176859042,20.4600267288,46.3159957699,64.62398552693,36.6725505812,42.2855288376,33.2799306092,26.370147135,32.1677438072,25.9131001532,34.4778065326,26.658058687,20.3759775384,30.8555478734,25.8318229888,60.363285488,44.9730428385,34.7709046418,35.8872231211,27.0160848926,26.4735895714,26.4317336406,28.4780220478,33.3773756512,20.2004528512,40.0641848652,23.5920828293,30.5765125844,23.0153192982,27.1820124696,31.7751737762,22.4942202138,50.7191570422,23.3688437832,20.0389560492,29.1467268038,26.2877157862,28.1229238536,32.9889994692,22.9181638028,36.434375351,22.1657383816,27.6617075657,37.5481384924,34.2465385592,48.5379814642,19.5522964854,20.86912799163,35.8063948812,55.9468031236,33.6237833484,32.8438845755,28.3941757788,40.6829188856,37.8971521365,38.8032820008,40.4984687,28.2571076094,35.1318781712,41.6422920072,22.3165955867,23.1245103226,28.178498588,17.2328422854,21.9266843228,28.0772660794,23.6450558971,23.147613017,30.2744471555,24.60601770354,28.4872697816,19.569357076,30.4776614062,44.0640183122,25.653242751,36.7932538278,30.75730684074,27.3206638227,35.263609794,28.2135760042,27.50705264474,20.8849179762,32.4658337531,34.4045495002,34.2352128534,39.0911819782,18.9583078434,22.8063023544,28.85794705502,21.6990029607,23.8926028872
34.7207525238,30.8263983418,31.9208433568,38.7868537998,36.4757967698,40.5515663657,26.6134518588,35.0008309302,41.4900869679,24.0423149108,30.18904347746,35.9408624412,30.9316594232,41.9708579002,36.1641763388,32.5090550262,30.6601029418,35.86359138189,34.7212124622,39.3418924518,1e+08,35.6409200898,40.0668542818,36.1408646688,36.2195635478,32.6127742116,34.4768385638,39.4464847416,30.1850307879,36.4874158402,32.30239165812,40.9476499512,37.5466143442,38.0555385448,33.3893693762,36.8433240217,35.3535846369,33.497613639,20.5117113317,45.3396598581,44.686054986,36.7191452618,42.6481536096,18.7710628258,29.3256092448,36.8670709172,34.2904152753,19.2059317222,34.7818353556,34.5428823448,36.2786527628,36.4415761182,41.579210092733,38.7132046019,35.7109081129,42.6937615247,28.5150491763,39.8028841638,30.7683840292,35.7185925785,36.8290476882,37.3777077989,36.5554644583,37.2073622902,37.3749836508,37.5956401575,35.7221839422,40.1979360042,35.9210624418,34.5058900428,34.9323555772,36.0737877703,45.0437458628,46.8789059599,35.0221427418,32.302858946,32.6655673538,33.8274242922,35.6795621523,40.3744187786,33.1133219972,38.8273479072,34.8596856348,33.4233897652,37.7195493442,45.83504856008,35.9039063368,47.2104165289,31.7575722518,29.5600778372,34.2730641375,40.2793446108,40.7785080248,26.5361439162,34.1844383518,37.9320578906,38.6052966948,35.9993799048,35.5067980075,37.335057472,38.1417699019,37.0656500136,29.4805854859,35.1686533958,32.0009980598,35.71823899,31.8501558718,32.8605941292,38.4860862572,39.8613165538,39.7037068058,22.1018171245,41.20399253599,38.1409673478,51.4460413421,32.1477284987,35.4515584256,26.6521898238,27.3919262172,30.2382817802,32.111130721,38.0110358902,32.7308002862,36.7121570084,52.8613417442,27.3107804283,33.6789365156,29.7789145006,46.7610880378,35.5829290138,31.5548515219,36.4564791199,37.0964707059,39.5643350704,21.6944735418,38.3858072464,34.8394351338,30.6979750652,37.28300271325,38.1825883988,38.1980242766,27.9115306798,33.1706528868,36.8494341618,38.6119623918,35.9437927859,40.9065209032,31.4726597758,35.6387754928,34.0006061323,42.4563786218,36.1224122726,41.4271125586,36.5587504658,24.50551168,37.4431481935,37.73017409513,36.8933171632,22.5352472768,37.4943737886,25.3027929208,40.8641319752,43.5045643599,35.7465952097,41.1028562414,38.2505927376,37.9385380048,29.8641547288,53.0112041678,35.5065384311,42.6514488392,38.5499119395,34.7028839202,47.5344963884,33.4879293862,40.51505980935,33.5513757429,32.0177052449,36.58621413587,42.4180143052,40.5233922845,30.0058034872,19.1307953502,35.2498066675,43.0544177676,34.84088712069,41.9843323083,34.9139767221,31.5441820749,36.49335003037,35.4591744645,25.6639787625,42.6426970018,46.9505586308,39.1866366558,38.2897955349,46.8018142622,44.71798226862,36.5901524181,35.379633581
19.67048599,26.231988477,26.024627755,26.242985643,28.799574614,26.199747705,26.322917275,23.5912222324,37.5804733481,33.106793021,39.67409592826,23.388943238,34.3082415354,38.003593166,30.526807971,41.077681461,35.769104676,42.29702029051,25.230475113,40.8682338962,35.6409200898,1e+08,27.039100081,25.217177131,26.892097698,38.9650572308,38.593250209,20.31864362,32.173444896,35.572281221,23.99497889746,46.530158101,35.513825703,35.942313972,31.521486825,34.9975032641,26.5019579949,27.4326804042,37.2711795613,34.7162782993,35.3413587112,35.130236591,34.0004705554,36.63132258,29.242611446,34.023218486,32.3598125686,34.68590338,35.1767834328,39.8096139981,38.282209601,38.220683038,33.096499895533,35.9290630444,34.0558453489,31.1512814695,37.0827839231,33.331105428,19.123219461,37.1377303517,25.886472492,15.866334205,33.5211628835,30.258670634,36.183106463,39.8118506883,29.9225161697,38.306475463,35.035447861,33.317611302,31.602794518,32.1455664236,32.578224932,33.482141574,35.912119285,28.564579506,31.049751715,35.404112052,35.9414377245,37.1334178292,23.34240154,36.3156908006,30.177023099,31.0941948086,41.562162483,33.10648430898,38.601357943,30.572414577,21.591019063,34.11408237,44.6847775213,35.654560488,40.161471249,38.24764712,28.013307275,30.9517492766,25.055375573,20.761617702,34.2229780626,32.4411753078,39.022947574,38.4236983156,19.5230249259,33.249781407,30.484138292,33.8623664378,20.089264384,37.964474608,34.612711663,28.709561045,35.270867591,43.1687754631,70.09427991469,24.703410978,27.8243077243,25.45722056,33.6754833502,32.05590839,32.0216169,40.714171543,47.4839154632,32.029894882,31.128235185,37.9815858756,58.689784187,45.6179095504,22.2970544612,29.5947700437,34.149112593,31.4877779574,31.839520795,37.1535390039,26.905526294,43.7882388995,39.137320641,25.2452800125,29.509609156,30.867572268,44.81624263395,29.688397693,38.0115915896,38.640331972,31.394726114,34.48389635,36.677079911,36.61762037,37.117818008,19.895052609,35.3875014444,36.6431290555,35.670653005,46.7049176174,18.8051492428,27.151763962,42.142473759,30.6567948316,38.60253121933,24.07651769,43.482485336,30.0803771962,42.728864447,29.268482779,34.27663112,31.2649494039,23.1815692296,27.1496953448,32.657986384,34.628591558,37.453577033,32.7299974077,30.570434891,36.3137951511,36.091152304,31.3563338566,30.1272410254,32.5071890181,32.6530783711,22.1200833601,35.25196841903,32.478112753,32.572300425,27.59865308,36.565137402,34.1826280408,28.4269863807,29.49664352554,28.1578220619,19.9842305832,33.84903072,32.95287995883,34.1439598254,41.5321544903,29.719895618,37.528040154,17.873668242,35.990854146,31.683049025,31.92295600482,35.6016661523,29.1219509788
22.574619232,29.334455818,26.582720778,16.4011272,22.756052728,23.066299937,23.152565752,21.9625080454,27.7372776198,44.243437381,19.98297265826,21.462877004,24.9420943964,24.071260417,29.430952609,27.444430925,41.780093405,25.48389144369,27.641128502,30.7477073182,40.0668542818,27.039100081,1e+08,20.337563039,18.157315777,26.7080534058,30.67218674,24.237600798,39.605109134,16.8597075925,19.50694728292,53.797344614,23.135325103,29.720072381,23.1358618525,22.5426572251,23.8894721139,21.0678156272,39.3994769739,30.1608105463,25.7307574272,25.419758092,29.0784020654,37.643866081,23.616424937,30.397064518,23.2190574616,34.442486872,25.4071122018,39.2654584771,22.231481127,26.903089787,26.070302755467,24.3466287806,22.4255083419,30.6081352435,38.0332408843,25.903073836,16.611526909,24.6146737087,19.115892055,25.086737793,25.0768930565,28.799122139,24.257480229,25.8708743573,20.8683397427,22.620424837,23.463906031,21.16609012,24.39740667,23.0131906572,28.747742783,23.252935044,26.359443252,21.4521459408,20.837249906,26.576528389,24.7005893175,24.6745913962,19.886235998,30.4576822236,23.129656433,25.0295493852,29.636998131,29.49374934828,26.393427156,31.417801434,21.759507196,20.175047428,42.7645242967,26.686338124,31.500630708,30.862298882,19.486641312,26.2188299656,18.323960648,27.488760795,24.7796656006,27.9819143048,26.460944345,28.7686204862,23.0319738691,23.420255225,34.151923327,23.0893450009,17.370441145,25.999808877,22.1330541,23.052565509,27.799756217,41.7267095943,57.37540066728,25.661306825,28.6559868504,22.04323385,21.2414704562,21.918509989,19.879169269,32.292452633,26.8899287502,23.396906495,23.504589617,27.8024848334,61.522280255,44.4833281994,16.8161396502,22.6555146327,25.31138186,24.1872767856,23.087950218,25.4244455049,24.956108714,33.301614692,37.476558387,17.6000809195,23.17982936,17.648948236,24.67008435795,19.097601907,27.5169791232,39.353572167,16.641126915,25.039455214,27.521092906,25.939239829,32.51007726,16.318703409,23.5984772084,29.5434678895,27.997334901,31.1390407844,32.4368401118,24.588270699,46.608988448,24.0258045494,29.18891871825,23.694464431,39.809929385,25.6260106252,36.224623454,22.987717358,30.621602763,26.0022526189,27.3913903744,23.4732497578,23.40527172,25.042857269,42.123124005,22.3788185247,30.143317985,29.1618008067,16.884052284,25.3508450196,20.3310931934,23.2534198769,19.5024676161,18.1390008701,24.52706173303,29.065124819,24.562707492,20.097261578,38.02133936,27.5885950708,20.859104728,23.59821608827,17.1905589828,20.7766533542,20.945826351,25.64868816683,24.8451748884,30.9000710493,22.232867246,38.384361108,20.567950034,22.326265391,27.795232814,20.74488374282,15.8394181037,17.6873462668
15.710125588,14.420917952,21.072531991,14.281325981,16.601406277,13.227496286,21.86536009,13.3838113154,41.1542798842,33.562206482,29.74452644026,11.427710534,19.7361844114,32.978831573,30.35118764,27.630898483,34.951620303,34.03182737369,15.231031169,32.9835193562,36.1408646688,25.217177131,20.337563039,1e+08,13.856714176,34.0552012168,23.227864238,15.214323685,26.776199547,28.2060877855,16.32901050792,54.993880125,27.84809221,25.473784104,22.7886907235,25.6192743541,21.3105901239,13.9678305954,39.3918102119,34.3718111943,34.4074994682,30.525971473,33.1980291448,41.844780242,16.80491031,32.144350268,24.5922041596,30.992155508,24.8003797348,31.3512995431,28.373502145,30.277533465,34.094950351467,27.0813729744,26.2127108219,34.3651566845,36.6448214353,28.16400323,20.023400483,26.2597374207,14.445781676,20.343799898,22.6125732765,32.703236278,27.274629211,26.6061357848,21.3720860037,28.846492891,26.111265382,21.508814055,23.02724923,23.6606633516,31.599494979,24.396384155,29.644530285,18.9574176798,17.370013628,23.198630004,22.9250743795,28.5589465482,17.85001885,32.2313606586,20.629170985,28.7473704606,27.84381601,35.02161539198,30.063771101,33.871723834,15.049196631,20.455661073,43.3269511317,31.022887912,34.262735694,31.823773901,17.952122616,27.8576362226,21.028041118,16.222135479,21.4236021026,32.2020678158,30.26550716,30.7185544216,20.7149635869,22.664093089,30.87794284,25.3157002923,18.397516436,25.928322016,30.142669289,13.830527164,32.561891156,41.7848817778,77.65442359079,16.315830321,17.1544103559,14.32008065,25.8821859562,15.705905208,20.590563362,34.226226798,41.2871231382,28.376021405,21.351443693,30.3971819714,63.075883264,46.0533837014,11.0357646724,16.2064861457,37.045081535,28.2869348928,22.26129776,27.9128337729,12.833153397,37.4700726895,38.530917783,18.9205815135,22.11817036,17.107303749,37.79303631195,12.413876827,31.2583420886,36.178103205,20.404751936,23.281410031,32.478578054,24.430095342,35.794070635,15.960443432,25.3991925814,39.9893845995,29.458036503,49.7254951124,18.7928176856,12.843414,46.895929942,23.1676661894,30.75739579907,13.37109126,48.633741983,13.4146538696,36.66263037,29.24621334,37.757432603,25.7616186939,13.5011676274,17.0067110492,27.631130917,19.598685846,45.894299403,26.6529463177,31.48683768,32.5004605165,24.315945545,32.5956534066,19.9956390644,20.3550704391,23.5337987821,16.2248019997,27.95356737803,31.676427098,27.817461317,11.331017663,32.751333789,28.5763484384,14.1500437574,16.04418358827,23.2728062979,16.1091680982,18.663857111,27.27319949683,25.3541770484,40.2342016493,14.619075775,42.04131058,18.074880556,26.586049201,33.017844052,15.5142745382,29.2183381957,24.2907726238
15.847841829,18.604759525,20.235794561,14.904016424,19.093278999,16.736393123,22.44888226,13.7624664134,41.9350578093,34.671931164,25.74241319026,15.306481872,20.2365753754,35.060862536,28.773296624,24.782344,33.048551364,32.40976948469,18.73665728,35.4703013702,36.2195635478,26.892097698,18.157315777,13.856714176,1e+08,35.0872523688,25.197984251,15.182386171,26.498720972,27.9178650215,17.76912435246,60.8172586530001,28.443295587,26.756490173,23.5000353735,26.4253854461,23.1571417669,16.9149036004,42.5364567169,36.2206999963,33.5035274732,30.724725677,33.7859764014,38.19613471,18.034495314,33.441055176,28.7491924486,34.88593235,23.2300242508,37.6830066671,29.702365497,31.971594418,32.245521829467,28.9389323856,26.5830062469,36.7677579175,41.0260062115,28.609224413,17.232073174,28.8977174477,14.641773859,23.860937267,26.2005492615,33.133843513,27.884710662,27.0587003013,23.0112150677,27.336934598,27.924389544,25.138628436,23.534078612,29.0754248116,34.625440953,26.415616012,31.429085387,20.2961619178,21.091575522,25.09279332,24.6828917685,29.8026022332,18.613385608,35.8292392906,23.557539488,31.1732473476,28.16871729,36.30832208098,30.863127444,35.634656811,14.12753342,20.637677422,50.3260445227,33.00706765,33.65534298,29.213471758,18.798864173,31.2045642546,21.282046405,17.359050673,22.9124770022,31.5954010418,34.182504489,28.9985631236,20.5328471251,22.940493405,27.869242974,26.5631658763,17.053168699,26.903093798,28.113029329,14.097760274,35.407968124,42.1861421306,69.34302460669,16.100408266,17.5700204734,15.721702905,27.4156514392,17.407802495,20.853730614,37.924627135,36.6346039812,33.514869857,23.212415465,31.1381471514,65.966976108,50.1570794184,14.8822938154,15.7631732587,34.721653015,28.0041097656,22.993668249,28.8462631749,16.699071284,38.390959265,37.640872399,18.5963307535,25.409766992,19.706902816,35.85036507395,13.552937724,33.1296223996,32.570537336,21.270320638,26.683373356,31.647741366,26.5731699,35.77983094,14.190527585,28.5652510374,43.3779989315,31.693864741,49.9015099714,22.4831656786,12.521521086,45.257978303,27.3095842384,30.47852751327,14.344340363,45.306170074,15.8178208002,39.294904323,32.031552057,37.788194235,23.5483789539,17.8200040784,17.9018253498,28.745828187,20.547542148,45.645094222,26.8762840837,34.516970453,32.1672886561,25.377155764,35.1834129146,22.9921338034,22.6287746929,24.1615173411,18.4446467153,29.99922474203,31.911028631,30.031292013,14.805886927,35.172521975,31.7442722974,13.7703404547,18.94202220327,21.6771080449,18.1423311892,19.61482327,31.08043831083,25.4320241874,40.2833747143,16.415415562,40.73362078,19.512768983,29.201025372,34.612079713,15.40880517874,26.7240422317,21.2898999258
38.4083564798,43.0567284828,29.0529804058,32.0431121368,26.5425305488,35.0140549778,26.4341315668,30.2073498012,25.8673665406,35.4460281168,22.99402330352,39.2455609538,31.0601756646,25.7764552884,28.6260095016,29.2294423468,48.9069089408,24.77750466169,40.5554356598,29.8701438542,32.6127742116,38.9650572308,26.7080534058,34.0552012168,35.0872523688,1e+08,28.5953289292,35.1737191598,43.5970832168,22.5800119838,27.19257778126,45.5969577668,26.6842320072,32.1772323968,26.9113638857,25.6682396877,31.2370488707,33.426248518,39.3005900577,32.1555757516,28.0761148288,28.5050057378,32.9740900662,39.6356074908,36.7449402368,30.6225350888,28.0137617864,29.9619332038,27.4041353102,42.1787783217,28.2769704786,29.6877839688,30.808561450399,25.7157988744,26.2570367247,29.9300438757,26.6828226839,28.0549956158,31.8892683218,27.0338863192,30.9857815868,36.8128689482,28.1359267018,28.2942592952,30.2502611768,28.1699181694,31.9118072337,23.6237637298,27.6297663298,26.9982271312,25.5923559052,29.4942613312,32.8100468998,33.4165672078,31.7924591816,29.1633089847,29.1688075458,33.3685734768,26.9962798288,26.7018915938,37.5376925608,30.8434090684,28.9253320898,28.6395125994,29.9093321128,32.57549604234,29.5657226278,30.6363939308,29.8075207298,34.8773727508,31.7619789654,26.6927657282,30.5865635282,22.9423638618,32.9219997668,27.0356169806,29.8906992938,36.2246410808,29.0687824434,29.9887125312,30.3173993608,29.3913764964,37.4672451631,30.7339642628,32.4682649928,28.1584959688,34.8193135888,29.0528258758,26.2960272338,34.4701031488,30.1364358618,35.9938059871,53.81354205277,31.4973442818,41.8468442145,35.5855543108,25.001688027,34.2902837708,28.2906039598,25.1775582858,25.962019728,28.1944394918,28.4419789208,29.1133099764,49.5863470922,34.0987717378,38.53828111,37.0287214245,25.2020293732,27.7575542548,25.2861532988,27.524741921,34.0783127328,33.8435892393,34.4346330678,26.4372972903,27.2550272728,28.1827605568,30.28771815875,32.5481832318,31.4674357806,42.0344165428,25.2696579748,26.4187287626,30.8655037038,28.0305919872,33.9421775428,28.7880978488,29.2358067292,22.4210447827,29.1810325798,23.7374675878,36.942458216,31.0496280088,39.6532969828,24.9960149106,30.28721702499,35.5030287808,46.2088595468,34.862800575,31.9483821134,30.7713970358,32.5145795668,27.3986748847,42.5936320172,35.3138931056,27.7881510374,31.2872963088,39.0126991958,26.1136755345,28.8483773872,30.8144083135,28.5460325168,26.3538650104,25.1374044652,28.2880901257,25.7919300806,27.2157785639,29.65443377335,28.5909562938,28.0829528624,32.7102334308,37.5081387248,29.2227597152,33.1843925458,30.25505690153,24.0226899723,35.095110718,31.9735770008,30.30401076089,29.7906693092,28.4353139588,35.1338887088,37.2607311108,38.1673183888,27.2608434138,27.8944374938,29.76187057562,22.3184850482,29.8666300436
28.399536963,27.302395953,26.790912251,24.453478731,20.641914942,22.901264427,31.364761142,23.5242780844,33.604984336,39.773478756,25.79590556274,27.352799197,23.1005309104,25.762863366,35.348869514,23.581214508,44.111105382,26.99921014489,28.980986086,23.6378498982,34.4768385638,38.593250209,30.67218674,23.227864238,25.197984251,28.5953289292,1e+08,29.453898626,37.024923518,27.9613696225,23.54314750792,54.395375475,25.069801226,30.403695055,29.761190055,24.5021661129,23.5135705377,23.3233051312,42.5959584377,35.1146036353,33.5964676962,31.351521896,35.1043835558,42.830988984,22.700939135,34.765902549,26.5149284586,27.853282804,18.5281247888,31.6441252551,25.532525157,32.005604058,35.742475421533,24.2424905757,24.9410764699,34.1670383425,36.6577672417,29.116994641,34.841257808,26.0710371677,23.070473531,35.428653724,23.6739966625,33.519158806,26.54412544,19.2273901798,25.0323893573,21.825994541,25.690797918,22.022353361,19.613637111,25.5973740952,35.394670596,26.242077759,28.826350064,26.0764601749,25.380926206,20.427672251,25.0845931595,21.3201436632,30.142114631,34.6078390156,28.74705414,27.4685783978,28.128028823,36.20728180528,30.534976041,37.744416887,25.474109276,18.660201994,41.6249579623,24.271431232,31.297974357,23.909794956,26.169176894,26.9358734504,29.097446467,27.453871347,24.7430821102,37.3427612688,27.650627786,29.7570910596,32.4954823419,18.671264504,32.525829702,30.5964235903,29.223978117,20.888952788,24.660928967,22.00020765,31.75063521,42.1861479877,70.73542239969,28.155609817,33.0257165584,21.846395462,27.0759634246,22.898529737,23.795889099,30.896767704,29.0641549982,26.691556462,28.729170127,30.1840937724,56.140080829,46.6505417376,26.2009901322,22.0634687294,28.61834143,31.2211906918,22.869544618,32.0208876701,23.639083177,27.2802992545,35.776241877,26.4924803215,26.443394247,19.191253599,26.76956887895,22.83961024,29.3793972662,44.6918027360001,21.678884024,26.030661864,30.292621577,26.615403924,36.491728753,28.652182867,21.9470975814,35.4009246305,30.55456228,30.829753894,32.3234563568,22.382715586,43.876430805,27.5844982252,27.97606782457,27.70570693,51.26758701,20.4330453222,28.38861035,36.452970901,40.016775562,28.9161979489,27.9818935946,29.6057927832,33.862278863,25.423471921,48.658595913,26.5878733563,32.905490432,27.9953456589,22.7936538,27.4694889426,25.2537715304,23.16374244755,20.9598748891,25.8515768955,30.03906763794,33.493077125,30.452259752,21.465281822,31.364611755,30.9272894672,24.1580471457,22.241788065,27.1759886769,29.1569330072,18.677938183,28.36070178283,22.0927085458,30.6675500788,24.192721325,42.820890352,35.26263928,23.370071595,34.199534898,25.35167910082,26.7930283383,28.3633031438
11.377948056,16.403640161,19.321495462,16.835550634,22.053536671,14.901414441,19.956064952,13.7794464194,53.0509353654,29.576318755,35.50281802326,15.223771706,22.9136003344,47.087829744,24.874582103,33.580922387,29.076515725,39.87638721169,14.289333469,38.5633897352,39.4464847416,20.31864362,24.237600798,15.214323685,15.182386171,35.1737191598,29.453898626,1e+08,23.969151576,42.0579635295,17.67128294638,58.556791502,34.688512175,29.30724372,30.3108818905,36.2812104901,25.7571102549,18.3957533282,41.8157278919,43.5912931663,45.4330175812,37.774094323,41.742935599,40.961189365,21.096574911,38.463462195,32.5677151866,36.229224332,31.1240603648,37.0092487281,35.736483858,36.364288509,37.273291278467,36.3189937097,32.3990643239,40.0504259605,42.6573460813,35.887179828,15.566740031,32.7294465857,18.124320576,16.86509854,30.0000786285,35.870311807,36.787788469,39.4241323988,27.4755407957,38.093949766,33.391987169,31.861595613,28.747397011,33.4347583826,39.819875594,28.17149939,35.304886702,23.2756079106,24.28322175,31.384767712,34.2603641585,36.5158557012,13.410003815,39.7380699696,27.243503164,34.0773296146,34.660555105,40.85474158898,35.808212776,42.127939243,14.142579544,25.002516442,51.5574983857,39.795381847,41.126214111,35.541432996,21.512048584,32.2862918056,23.374285072,17.191521104,27.0643789426,35.1827823738,41.420464319,35.0284267376,14.4245235901,30.012332177,20.986405381,31.4786206858,14.082862839,33.05020435,36.636824744,16.19383427,43.431641889,45.7297082865,72.67052329389,15.051426261,17.1560905544,16.17438076,32.5257170732,21.270167465,27.579279862,43.785467361,47.0634992562,36.532549152,25.768222112,34.9820113824,69.004873085,52.8841109624,13.5004103678,19.3572804041,45.588319282,33.8926065036,29.259192885,33.7845113059,15.839268812,44.659756762,37.689272587,21.2893863805,28.250439393,26.51611026,46.58596165695,17.592467879,39.2051616946,34.746301497,30.348220086,33.075501105,36.08896151,32.823627525,42.055688183,12.433448166,32.9138657574,45.7492754665,37.948408258,56.4545497704,21.2929421588,14.778888499,50.745421586,33.0022491114,37.39339649327,12.968580826,48.511713005,16.8852459832,41.707243427,33.682246691,40.075727192,24.6630485959,13.8925200006,15.8792804058,35.083989545,24.065345216,50.619118148,32.8789151867,39.424194255,37.9333390531,37.952311179,42.4751317816,27.2918447424,27.9246610859,30.3467045601,17.5119377453,34.42538270403,38.165599923,33.941430175,15.993023282,33.748440191,36.0162083014,15.6460659891,20.27555178973,27.8228539789,13.4449060262,25.70711819,33.29450511583,33.9040950754,40.8233975253,17.7404418,46.140779489,18.660615874,36.966980052,42.248534003,18.13519755882,37.8290985837,29.6746146078
23.622058387,22.715454878,30.394336745,32.288124884,40.718494104,33.591705189,32.119460101,25.2642060382,69.2724474932,30.774688077,40.25813976426,23.697826005,33.2798008324,67.28174853,36.570990522,39.881175868,12.295495032,49.56070207269,23.396354317,51.7647822722,30.1850307879,32.173444896,39.605109134,26.776199547,26.498720972,43.5970832168,37.024923518,23.969151576,1e+08,52.249181733,29.65127135346,58.433862757,46.206710137,38.48785539,38.3575475945,55.7890375701,36.8339735149,32.0936558386,33.3716157049,60.1701692443,64.3431206572,48.367580174,55.8248751566,28.521970906,25.905013061,47.71843109,46.2074055626,32.189081038,48.9643279088,32.3030608111,42.694218561,43.504388476,53.005569170467,56.4951452244,42.9057528749,56.1615303435,50.6151578515,57.023344414,24.230808778,41.4533792947,32.838063768,27.072129052,36.4337520565,51.138123401,52.22301353,56.8372108343,43.6735956417,59.185569802,48.289527398,43.108802656,44.078979737,41.3503567616,60.110361058,52.105348498,40.161850612,31.5449062259,30.130233515,42.401047508,52.7193690465,59.1092996272,25.429387256,55.0591081506,33.88634296,42.7313115566,40.776062669,60.73784693098,46.222095043,63.138035443,19.653192943,30.512343846,51.9087851647,56.072665668,55.698244514,42.582259542,28.400723672,50.2965103656,36.360099815,25.029256906,32.671739636,42.1668965998,51.878022073,46.3068660986,24.6623732971,44.170539003,28.753449452,40.5383487498,20.5180964,42.41817431,52.969508893,34.60008154,60.762580925,35.7372406943,40.31985985669,21.391419714,37.1653566883,24.243425885,42.1117968622,25.856138916,35.106673376,49.993971559,49.4873152492,50.820891378,34.773481224,49.4585737044,79.778552241,44.2170340244,23.3044853392,24.0089312466,60.327951083,39.5256304074,35.69837096,43.6547244469,29.356712868,57.97840329,34.504785582,37.1104894035,34.587750474,34.351341664,55.91830453395,33.877300405,48.1007418806,19.282493358,44.0089142,47.462278966,48.019964961,42.148435073,50.411428846,20.159363793,47.8905116764,47.4543814435,57.544213509,65.3474984354,33.7430608004,26.25956802,38.096756591,50.9079476804,49.17087199927,23.295357401,26.336075012,36.0438278128,40.882365155,44.599614168,44.756729396,38.6963451779,26.0324015996,27.303405261,42.829786036,29.015417906,65.607712994,43.9737623767,58.534516289,51.2722301616,47.05262047,65.7831823826,32.2026065224,52.2137419641,44.8243374741,26.7209018433,45.89607317403,51.474271638,53.486045631,24.310975456,29.740591873,44.2085797644,38.2521543597,32.66245674154,49.2422519129,22.2311200102,33.011735246,40.65302549883,49.6675805514,39.2727411363,37.956947641,58.852073942,30.852625717,53.798909988,62.867554227,45.31253268426,47.6237130697,38.7959106338
34.969778472,38.715382593,37.4664811125,23.08054636,21.509462626,28.935160731,30.990371764,32.5812888001,19.5911426234,50.9967559275,16.32080279704,31.634433129,23.2555710434,17.500497765,38.5610705975,21.703958021,53.0532195135,20.83480093589,39.018508994,21.5973019391,36.4874158402,35.572281221,16.8597075925,28.2060877855,27.9178650215,22.5800119838,27.9613696225,42.0579635295,52.249181733,1e+08,23.04410020508,48.6281305905,19.996007469,28.063917233,22.162259546,15.4856467923,24.0412568219,27.9737999038,43.8679416704,22.3562164313,18.7344842102,20.674679812,23.4461924898,35.752397899,30.537652561,26.5217528855,19.4583964442,32.6865335,23.430551312,36.2040707479,18.0360534405,23.986865592,20.267703857533,15.2247511354,18.7817210648,23.0798003575,32.153057213,17.027844606,24.471605439,21.5434982872,23.446117628,31.7993944995,22.2176366525,23.366415216,18.3076200365,19.4249208893,23.8018527468,14.604693476,18.902340273,18.525669753,21.257064827,20.3905353477,22.41095486,25.6031963635,22.929905532,24.5713438853,25.16471287,26.249834545,17.522609036,19.1659097922,31.906704907,26.5368100928,22.8580909735,19.2710611176,27.9636573735,24.45613417228,21.94721134,22.4211490505,33.7174516355,27.854041037,36.9104642923,20.2567206845,24.272701378,24.940733125,24.492773203,20.5612801738,19.5812368015,29.320143074,24.7033633129,24.6873047827,21.0788204825,24.3911871791,38.2123989976,25.1476948145,45.3063991215,20.203738336,29.457486258,22.641089351,16.185756939,30.6421192525,21.185602586,39.9972274801,46.14528261697,39.1936553975,45.7639148998,28.767884424,19.6568981225,25.8667612195,20.357153775,27.062318689,18.6275001476,18.519439137,25.0789792515,22.4761829216,59.2580005655,37.6673713541,26.5355016606,30.2780819256,15.840787611,20.1683068604,22.8382751165,19.9709832356,33.167818885,28.978544382,40.248898714,21.6446937065,23.178662345,20.165078875,18.3528172439,23.8799119915,21.0083447563,43.7919731055,15.293902521,20.5832120965,22.294768151,23.3723609065,25.8376068805,22.264242987,19.7030599809,28.1274340245,23.19463867,23.4764781265,32.3109914752,33.6147253935,43.1610646335,16.5039512744,23.02815979363,34.879220774,37.6680508755,28.9357911108,29.806482487,18.253877105,31.1200871945,35.8931026819,37.0864818551,36.2163681522,18.804725554,28.288800639,36.564493608,17.2115265297,23.5574969885,22.7774297403,15.2892701,17.6775079286,19.5255263608,24.8594923366,18.7573187381,21.484978067,20.25875448309,19.509780159,20.4366416656,29.9580557095,39.331517158,21.0968610744,29.4813598606,27.15751294354,17.8273825817,29.1033981073,23.9059413995,22.40373329466,20.752378518,28.267455419,29.9425066685,30.7560955905,29.0149864305,17.224881183,19.335449897,27.21185852918,11.4021298943,18.2739527248
16.07389525162,15.90925945308,25.94780949146,17.28289436708,15.88698136792,16.77572996838,23.245867523,16.70677743456,27.12875562628,35.81058798192,20.88183177222,15.21344853608,18.90124266386,23.90696049208,33.30341869108,25.16610926208,34.94141679946,23.94507538537,15.47053806208,28.42537317782,32.30239165812,23.99497889746,19.50694728292,16.32901050792,17.76912435246,27.19257778126,23.54314750792,17.67128294638,29.65127135346,23.04410020508,1e+08,46.00522490354,21.88461203108,24.29331308692,20.57944673358,23.13394773002,14.13879262656,12.6271411602,33.74726585682,27.16181681552,25.92474865766,21.73631009446,26.16436346146,32.17507524146,17.09551979446,27.78226620762,20.97539896106,26.94743932608,19.91736237188,28.36621210936,21.02338285246,24.99313790908,24.656642508613,22.08149002168,19.09633696036,26.91098383866,31.70993563818,22.49230013292,18.91824357008,23.08659057962,16.42573799816,18.09176797808,20.06537012946,23.72041390108,22.033155702,22.60883209772,16.90903650096,22.26756999308,20.74698417246,19.96996557646,16.53304501608,21.13246510366,25.82322847892,22.53207411746,22.80607889992,15.56894084488,16.30300541646,19.91882571946,22.26196087196,22.40522725126,15.58892537808,26.33897626408,19.17180887146,18.67803838726,26.33049555746,26.38323588336,23.22675297392,26.72896923346,15.17331442708,17.28452130908,36.95687543822,23.60582972646,28.46863031946,25.82724152308,16.78951197592,19.91824750348,21.00135902046,16.83262192808,19.01421429406,25.43270430248,23.66537759446,25.80403988382,18.09063041644,18.76218404046,32.22545308308,20.72444166918,17.38235142562,23.68488858608,22.25912435392,15.74060860146,27.66187064992,35.47903607766,54.59660462687,20.62779513646,26.90380037448,17.77118792946,19.86268619472,16.16942616492,18.49396262908,29.83895561408,28.62969602628,20.99894413808,19.32785206762,23.86311301206,59.07241780146,37.21431784346,12.57892962152,17.00775557852,25.47990775946,20.58025001568,15.92359163546,21.74089086356,18.38124656608,27.23536752908,34.79788702754,19.06977128204,20.09275559446,16.58854550908,30.28573956903,19.35056012084,26.45679781542,31.75544866392,19.19548475946,25.00507187246,21.62788165192,22.00219176746,29.46932612508,15.22583145292,20.99157432348,29.83788222442,24.00109176446,30.83909811648,22.71252483588,19.96174593,40.54222576692,19.98803549526,24.60705892509,16.73686777216,36.86837823192,15.5274119342,32.15444364346,21.53270206108,27.58513970346,31.59599299198,18.95521771832,23.88615522572,20.95543631046,18.09624464592,37.91488230046,22.75292833016,25.14452040662,25.15082702218,22.24464668608,24.58111162706,17.32959856286,19.65091475582,16.39720508602,12.96848581936,22.81361545749,23.70461799308,21.31137998806,12.99033504908,26.00307461508,22.66721259888,20.52743228752,17.37918468473,18.55888229628,16.23510830066,16.96371073046,21.42214201191,23.11026107186,31.40934282384,21.00000038792,33.66540866446,21.25227429046,20.86833163246,26.57369569808,21.34050301528,21.22470098776,23.69246592372
53.199199433,56.143742177,55.495643292,56.893697247,49.378073853,57.595969025,46.275328186,59.3183048574,48.5748022799,49.818284542,48.82936729774,54.245782715,46.0303830454,52.993566494,53.774493576,54.668361711,55.347442917,45.66720392929,55.873497579,54.2737919012,40.9476499512,46.530158101,53.797344614,54.993880125,60.8172586530001,45.5969577668,54.395375475,58.556791502,58.433862757,48.6281305905,46.00522490354,1e+08,43.378769338,46.448251463,47.1701214505,50.2296539123,46.3375650508,51.5521513188,45.0205634169,48.7728698323,54.2447728782,46.402007126,48.2226410934,42.721649444,55.61239267,49.826065457,47.6837878292,38.798588377,52.5494359196,43.3781985966,48.243486304,46.052962092,47.076581691533,47.6930881438,46.8311562129,47.0559571645,34.3887759694,50.641897901,50.569102067,44.8506413197,52.933064046,47.340847792,50.1835743855,46.55365289,48.884862133,52.4784563818,47.9628375665,53.848222118,45.3460622,48.871144828,47.467502537,47.9688939826,49.676927276,54.9450462760001,46.455613234,48.4608881871,50.871387703,48.46692121,49.9310543695,49.2280715512,53.942840992,47.8722788316,47.220819525,43.2245557874,52.737895644,50.07518038698,44.204281172,51.697338226,54.989054038,54.148671082,35.6818617763,50.307912127,49.551394625,44.716126505,51.646242413,45.9496379152,52.805423647,45.085853717,50.2817699394,42.8832497108,48.45235213,46.4730656686,54.2470359551,50.668388022,57.903029854,47.7167026343,54.6755941380001,49.248951353,49.222219488,59.637560257,50.054764254,39.8121367365,58.97316584402,62.977305981,71.1846932196,55.690744241,47.1931003672,51.752362179,48.219609739,35.844738919,50.4889685772,45.675187976,48.142363187,46.5770787548,46.99840432,30.6028848944,53.6614027968,56.4210577933,50.924088972,44.8662691844,46.832295539,47.2804965059,59.551293839,52.495226706,42.805921822,51.0180241735,44.470169211,51.272401602,54.23153231895,58.583842361,46.2419460206,51.006905667,48.818095357,47.014002027,46.725454817,43.925075134,46.225783013,48.300683258,46.8936023534,37.4492240745,48.787245163,43.1591343124,48.5425102972,60.694654326,38.250580497,47.2745452566,46.08245203527,58.49906085,48.903116569,58.1408097528,44.605929496,46.034577986,44.682469324,52.7411781059,60.0902729936,55.8112314168,47.136801321,52.188647456,51.080774992,47.2753228657,50.112015983,45.9627620623,49.678406474,53.4062878576,46.7834630184,54.5080319286501,47.8312062641,48.2482796127,48.06827923703,46.634193059,48.3683325874,52.476828914,46.434076679,47.8539120786,63.3839648313,50.164294747,52.4444095738,51.5735130178,51.408267262,44.41077199283,52.1789884564,44.9685760683,63.298870963,48.774755073,50.847801774,46.791499417,50.571005113,59.55618178818,47.3155563213,52.3721360338
27.390642306,31.39622824,32.855585994,25.760198221,22.003001986,26.517068465,35.964257593,30.2394736334,22.2875561061,41.681185327,21.86493289174,28.351542774,22.9700157914,20.304775559,37.979995358,23.650427142,49.894662557,25.40119234144,31.672731388,22.1247994526,37.5466143442,35.513825703,23.135325103,27.84809221,28.443295587,26.6842320072,25.069801226,34.688512175,46.206710137,19.996007469,21.88461203108,43.378769338,1e+08,28.866691156,24.1788125625,19.2493225689,24.6302640341,26.2709077362,42.6256211499,19.4160641093,22.3570108752,18.778323964,16.9909408106,40.799548953,27.014997674,26.563263957,16.9398172168,30.910391103,22.2223430516,32.2389033887,17.309297238,23.393828159,16.586893994533,15.8996986144,18.2449987709,20.4788916835,33.0055183825,15.577635351,31.7455487,16.8239242516,25.490438507,29.908791571,25.1676957585,16.28255632,13.723977884,23.6426259578,22.3050986626,19.168989539,13.634471155,14.938030263,17.203596163,21.9656289482,16.868184039,21.605655833,20.364735188,23.1438812612,24.90143496,22.269617315,16.3554841185,15.8970971172,26.380334179,22.0189209196,23.864997372,19.9210659728,27.109972298,17.22813587028,17.069913134,18.869310835,32.265359541,24.963849333,37.0002455689,18.208230886,21.050340328,23.381850594,28.691341663,21.0587939608,23.850995188,23.753112744,26.5539917884,18.7828228164,17.064976215,23.2555040594,34.9469445311,20.960584974,38.818383053,16.9827213411,31.556426795,22.983257041,17.742313012,29.120346324,19.177092059,41.432159685,64.03700970839,35.273386449,39.6455418893,28.329345296,18.5359417158,27.669486769,23.107298223,27.95961753,30.3101892378,13.992322261,27.836321662,21.2123595766,57.052855084,39.2309941096,28.3025223326,26.7506063896,21.720646355,23.8655546684,20.813449966,18.2700509731,30.000354345,24.265619276,39.095449491,25.0604147795,25.730215407,20.131962279,26.79232041015,28.282458816,16.9199973898,47.515778033,21.091945146,19.758219588,20.925693289,20.87532333,24.81652828,25.805038287,18.0776098026,26.8523718885,19.878951915,31.6487157706,29.1400569308,28.398022903,46.23691472,18.8917923926,18.57796004643,32.058132175,44.471204197,28.5602609802,34.087468134,19.743460731,30.044178335,32.3170173771,32.5806611006,29.2720766158,18.258917731,29.817607075,31.73509817,18.6873075213,19.977744086,23.0602163213,19.165380294,21.1459758446,23.0699389208,23.8890254561,17.650051443,24.3608526232,19.75603445694,19.198655723,14.6299057416,26.094181031,36.935009566,20.2471174252,28.5489580606,22.87996881854,20.5043411892,29.5286369398,22.831051295,21.34962005283,21.990562263,33.5632280513,31.929107426,29.577335024,31.395954026,15.113638772,18.933807605,28.76364754982,18.1277004323,26.0026393068
25.536554615,27.081321478,34.897106598,26.573584675,26.473001806,26.683739853,29.109123536,28.9701231816,31.7063815295,47.01707426,29.98917845074,26.732746038,25.8680633724,31.067797847,35.543406172,27.671131584,42.333734486,29.39140881971,25.588537756,32.4614667536,38.0555385448,35.942313972,29.720072381,25.473784104,26.756490173,32.1772323968,30.403695055,29.30724372,38.48785539,28.063917233,24.29331308692,46.448251463,28.866691156,1e+08,21.959845924,26.2048740299,25.8693573871,25.8692614462,41.8475118349,33.5226940487,33.4826905282,28.055686718,33.5367737356,36.916519753,24.892026333,28.945025019,26.4578774494,33.415195407,28.5782307098,32.9414384191,25.767977874,25.818994865,30.372271652533,28.4475358067,26.4033401229,31.1872563625,34.4889037185,31.486204603,28.998466885,26.3029613756,24.999586192,32.315769591,24.397924786,32.215593383,30.411307552,28.9449677317,27.7408922923,28.281570251,27.558754531,25.56540731,27.237964137,23.5182344596,32.773847828,30.64657384,25.381166367,21.2501939188,21.363308862,27.589147205,26.9859861595,29.9166947428,26.489768246,32.053551944,20.919328393,25.9020485822,27.312633934,35.19004618872,25.056417474,35.120998283,28.393540156,27.634296936,41.0983476373,28.624603435,28.156614651,29.986213162,21.409080112,28.0916905264,26.634940333,28.20566724,23.1109542026,28.8577053434,28.297945035,28.6981570854,28.5769328909,27.001248111,44.669367685,25.3079725271,28.485041069,28.074109326,28.557176774,27.895008689,33.028223653,38.78946254,50.62201450879,32.655486802,36.8028565573,27.740351738,25.1637804028,22.168632833,25.815635144,35.881659505,34.2052822248,28.704882168,23.716492629,26.3880823626,54.556234534,39.9659977896,27.0771115224,25.0494593234,31.121803502,26.8724794778,22.722139563,27.4359741221,28.694878477,33.125461399,39.206371029,27.3877665215,25.284524489,24.043491326,32.32646565105,27.450664426,29.9954337748,35.153954769,26.436166221,28.019221664,27.96287033,24.296393034,30.749815837,27.153120333,27.8505709886,37.3738997155,31.521020772,38.0738756246,33.1332411018,30.1845256,43.336256132,26.7710281528,29.35824737203,28.559623124,39.234501597,27.2820846038,35.630100554,28.125766171,32.03750951,39.1799459719,29.7190205986,30.3083675102,27.415022341,22.999070635,41.506913204,26.0559832243,32.020024483,29.2416072806,27.934093769,32.9120660754,22.3488953256,28.13853834055,26.6726285279,25.6850040816,25.55701507394,30.351026722,29.9584518186,24.655278706,32.421618774,27.1733530218,27.7615231724,24.318718054,29.0000121212,29.1143083432,24.387486633,22.17292036283,29.9605754056,36.2367918633,29.404090528,35.579910569,30.175451543,27.785251428,32.223319887,27.73926377482,28.1408366913,27.2810587492
25.3801389865,24.1806495855,42.4823379955,24.584942693,20.585979361,23.748690993,31.293024559,24.3478422417,27.5452980219,45.769495446,22.15167882374,23.1804168405,22.0461577619,24.9132111855,42.3828094385,24.085309023,44.1815390035,25.45392984542,24.9634884045,27.6275286945,33.3893693762,31.521486825,23.1358618525,22.7886907235,23.5000353735,26.9113638857,29.761190055,30.3108818905,38.3575475945,22.162259546,20.57944673358,47.1701214505,24.1788125625,21.959845924,1e+08,22.9286735559,21.9349190436,22.9340720141,41.5048831324,29.0800207133,30.6683404431,23.846857333,30.1695210801,34.1114777355,25.4825820815,23.806940847,19.8263497733,31.684808001,27.1661208863,29.1139911378,20.0861707785,20.324718459,24.446365622033,24.7854684391,20.6232701144,27.603382642,31.8027945938,27.523308981,25.908277915,20.7606161251,20.980067054,29.2879747325,22.1677395305,27.488380551,25.3800794445,26.5553168449,27.547086528,25.6030677015,25.13737182,19.4938944925,23.509900437,19.6167841123,28.8070874015,28.2590755795,22.2524997235,19.5151721317,18.845568074,24.3218241045,23.564287286,27.6559994011,25.1852375855,27.1019777051,17.225186956,19.866214148,22.327351934,33.02097441728,21.0661209695,31.1862694875,24.4529762475,27.311366779,37.3538354133,23.547842952,24.578259059,29.3369969455,20.187406351,22.7295996024,22.950203044,25.5194342635,18.7339734779,22.6309443695,23.719081157,23.6541132768,29.7466749936,25.8507941735,47.6150128825,18.4093611172,26.6898530485,23.64109964,24.755199032,24.9478623335,29.359687189,37.934543686,46.33528667198,30.8962111835,37.0984791292,26.6074232715,19.9153463241,23.5161993575,21.044365575,32.498268457,25.9823602278,22.714880719,17.652179992,21.1268056281,57.783645714,36.9121259736,23.7160985141,24.2206939671,25.7125552945,20.6447256924,19.6826647465,20.5888400964,26.9556891525,31.9623668005,36.4452947655,22.2099425945,20.098928889,21.1589957375,28.5430598191,26.4274924695,23.5378366038,37.8370617975,19.7558934855,22.711986813,21.5440029865,21.440075563,26.134739744,22.165637611,20.1263934756,33.0492558995,26.0779750135,29.2465747473,30.3115433393,29.2059553965,40.37137796,20.4328903256,26.60196235534,24.7728692435,37.7508325885,26.2698679158,36.0059624935,19.946017896,25.12644786,42.0347655047,31.0038728371,29.7031127639,18.5631981455,19.808377066,42.901093647,21.6966375672,29.1554527255,23.9513199909,23.0932446985,27.5658285191,17.7260161822,26.3282454759,23.0526194043,20.8006030144,19.32352389453,24.3299092235,26.0076264461,22.8881551355,34.5801127525,18.2768910791,28.9009573341,21.77982616854,22.4917824482,24.9532795318,25.1934808465,19.09636466784,26.3480193342,32.6364610695,29.3561422615,33.631590765,27.587096525,24.2628395755,29.2850321955,27.09764066926,21.5417188917,26.9821911334
29.2447666721,33.0969640821,32.3916986621,23.7514008131,19.3825925309,24.5172355591,30.3428111841,29.2280717705,24.7565738059,46.8857599821,20.58120886224,28.8982430051,23.2908593813,15.8469747869,34.8818926764,25.1930676941,62.1646773981,23.44817465299,33.7782407461,18.9430761573,36.8433240217,34.9975032641,22.5426572251,25.6192743541,26.4253854461,25.6682396877,24.5021661129,36.2812104901,55.7890375701,15.4856467923,23.13394773002,50.2296539123,19.2493225689,26.2048740299,22.9286735559,1e+08,19.9868935088,26.0293314939,47.9836206154,25.5132671522,15.2022941111,21.3867034913,22.9058767137,46.6717631241,30.2906684681,28.2401109369,18.0192069981,32.0685405499,15.1357462099,33.8729759608,20.9397726889,27.8019362459,22.551877256165,12.4321751047,21.7730406115,24.6078724566,33.6253166781,15.4764327523,29.8912347861,24.8833179679,21.6148996291,32.2528930499,23.225032331,25.9260962969,15.3074123959,13.3073404586,18.7427169281,12.0918295733,16.1038785359,18.3197402509,14.9526195729,23.6654925301,22.3258257193,22.7353076449,27.5632531522,21.5042852979,25.2001326891,18.6242852631,13.6301623208,18.2400146919,33.8264409001,26.4016881067,21.6547009241,20.5160096271,30.8331846101,24.77618223618,24.5404170113,21.7802289513,32.3840703881,24.4398421801,39.3393506666,21.5666014375,24.1368429009,21.6352259597,25.7879141081,21.0611261805,22.0526767229,28.8549810069,25.4349886615,28.5397520007,21.4267429189,26.4480839097,37.744366876,17.5772978331,42.6305435251,21.6208716724,28.6845381181,20.7715205199,15.2141323069,27.3780094171,20.6122310533,45.6880131862,67.13496360359,36.2707897941,38.5514210334,28.0925639911,22.9181418085,22.5812009241,17.4199437601,28.3151588723,26.0258216755,19.2411941129,25.5266290639,21.0967260951,57.0346565329,44.7273456072,26.3540788113,29.5447369895,17.9854900699,22.4229281803,20.6970121639,24.3256865283,29.7737034761,27.7771068254,41.8851340381,20.8718723894,24.1844531159,17.9336709821,19.7317121098,24.2979419351,21.5344974201,52.9774891301,15.2196021401,19.6225997579,25.1513635191,25.0420997889,27.7994931869,26.0114444641,19.2149406791,32.0743166896,23.3810170369,26.5205008802,29.4968881241,29.6319492581,49.0272011701,16.7316039995,23.94575420716,33.1103431261,50.0038476479,25.0051308489,30.1336208839,23.4842383169,36.2993813119,32.9088442438,34.7951542187,35.4785560909,24.1399633449,28.9413676271,39.0682611923,21.0297536636,22.9496772899,23.5604787832,15.2767523282,15.4161272525,21.5816199463,18.3832143552,14.581249962,24.6095715678,20.45877721893,24.0732539573,17.2889381138,24.7830691301,39.6878794021,21.7933407395,25.6209166668,25.0525906091,17.6673785247,30.3657500883,21.1372964941,23.54948656736,14.7026300263,29.0482373554,28.0487907081,33.5744091269,30.1306989481,16.5109578649,19.0300806919,22.14352052828,17.4047980934,21.2086125017
20.7730689759,22.3385242899,33.8474841639,21.6244157909,16.9014768311,19.4743225239,28.0927027299,22.6280551193,30.2525205043,43.8377937159,24.62251599194,19.2359209829,21.2951488615,25.1000217616,37.0482170239,27.9786686439,43.8093652809,25.59031173029,20.9399869479,28.3936443231,35.3535846369,26.5019579949,23.8894721139,21.3105901239,23.1571417669,31.2370488707,23.5135705377,25.7571102549,36.8339735149,24.0412568219,14.13879262656,46.3375650508,24.6302640341,25.8693573871,21.9349190436,19.9868935088,1e+08,18.0595970841,41.1624651988,27.2564837871,24.9941246124,23.058780107,25.9286268308,38.5004760949,23.7979156489,25.9533511731,21.3383943575,29.7429438861,16.6796135704,29.4371099411,21.6075341739,25.3211378359,24.413424507433,21.3221533964,18.2754850648,25.7201502574,33.8390126539,24.7171267239,21.5835860939,22.2311372459,18.5328132019,20.4616569831,22.0172795651,28.3018536189,22.2096849799,21.8176665057,17.354127302,21.2415962479,20.9992448799,19.3326025332,20.3513825428,20.4870595301,27.5848680749,23.1916361179,23.5703775751,18.4111618698,18.9991858269,18.0928064869,20.5852224724,22.5020948174,23.4483571649,29.8485364745,21.2451410199,19.7043283033,27.3519949349,26.75508597688,22.7049376549,25.5526115069,22.4996230419,20.7214835049,37.4079904604,23.2345960529,26.1322497762,25.0654039762,22.0935638699,23.1759018503,23.1105913909,19.5781761151,20.8814554639,26.6445765295,25.1380577431,25.2876074211,24.224910006,18.4657721459,39.8158161809,22.6714837332,20.8149016049,22.0119979591,24.8674423359,20.6317409379,29.0304024449,40.9641813796,69.70722380871,26.8718974429,34.2540671058,20.1728662709,22.6742464484,20.0027869249,20.7166742019,29.2770282579,30.9198442255,22.6244993772,20.6539256901,22.6465255195,57.364259858,38.3670108725,18.5111530351,20.6203922629,23.9409861251,22.3590340397,17.6209799768,24.5391185352,21.3771336789,28.6826389092,37.9311271809,20.3683226854,23.9062029319,17.9291990989,32.382742688,22.1549147249,24.1698327778,40.5256189169,19.0459241479,23.7285265712,25.4986559369,21.8215463848,27.563360878,18.3196260919,18.7190323343,34.2456241894,26.2780787422,28.4082563598,24.0888435229,23.4062798739,44.4151361399,19.5802271575,23.83619042393,22.3332329519,44.6643198529,20.0094390527,31.9189996732,24.6559926799,34.8162118437,36.0454101812,22.0907405415,29.2801580419,25.2189717312,23.0531140719,39.7265242809,21.2460915427,26.4156016222,24.0934983611,22.1210244,25.0061313078,16.7886192323,20.71395843765,16.7512034564,15.8166855162,22.95151284216,25.4647952389,22.2979356332,19.0554884849,31.6099992399,20.8768159011,22.6351706056,22.8522338339,20.5931687759,21.9471575041,15.7129725019,21.52195577776,21.1964529622,33.328486778,23.1699449299,32.8291350548,23.6063480409,20.9124081242,25.1989439498,23.36145380072,24.3665873371,22.0555495019
14.4965523882,15.4258392652,26.8670208324,17.4925263682,16.7467706492,15.205576753,25.8229820262,16.0430196096,36.3318197225,37.6802926602,28.71515578746,13.8910429144,21.3014753676,31.3255296968,34.2995182102,26.0276056792,38.3314826412,31.57062196489,15.9807811802,32.3191285224,33.497613639,27.4326804042,21.0678156272,13.9678305954,16.9149036004,33.426248518,23.3233051312,18.3957533282,32.0936558386,27.9737999038,12.6271411602,51.5521513188,26.2709077362,25.8692614462,22.9340720141,26.0293314939,18.0595970841,1e+08,37.4238881121,34.4674281301,32.1054016724,26.9973289414,31.7241096736,37.6705601882,18.4368153426,30.9229327962,23.1030282518,28.5968409152,21.578740322,30.5075052183,23.9129108912,28.5298348418,32.188650460267,25.926234848,20.7495144965,32.3961613763,33.5794973627,27.3591221592,22.6694519874,22.7720100009,13.3891301914,19.0415415972,21.1055553241,29.6553317982,25.4523222512,24.7897547335,20.5013861209,26.9863748648,24.9988913458,20.2218656602,19.7420944912,23.9538433918,31.9164916728,22.2500566892,24.3054969466,15.4282498724,17.2923195572,21.4159596072,23.2143968273,25.6198073914,18.7434170352,31.1574544768,21.1044616466,24.7456356668,26.6468351402,33.12718229618,26.2290565956,33.0022738678,15.2671172334,18.7598702792,41.3041908069,26.1404233002,31.4617828282,28.9279216092,17.5165316064,23.6046857582,22.3652760762,15.7252637512,20.2906225104,29.6883461516,27.3960394638,28.6550675198,18.3517525003,21.0357146222,35.5114724112,23.640203966,19.6420617696,23.4481121692,28.1587113532,14.8815992912,33.5071664522,38.287233278,63.90268953979,21.8058768732,26.9009677006,14.9634829882,21.7722499544,14.8880042582,19.5432489732,33.5938084562,35.6299995374,26.9230878268,22.8449225012,27.9255792116,63.2673652706,43.0220459246,12.8044952226,15.5963696117,38.7672622372,24.6332310292,19.2504985702,27.7592701761,15.7923599222,35.3849232167,34.7630807132,21.1119879951,24.6159028438,17.5956679952,31.31206928615,16.8778660832,27.4759570294,38.3567106392,19.8160477212,26.3397272078,27.5495271702,23.1384403386,33.4398902472,18.6719249624,22.2941843336,38.6904415577,29.9656228712,40.9000146126,22.424964742,18.2025828382,43.6922798032,21.8489760566,26.77895555417,16.9413963926,42.6317967962,14.1622669156,34.4429702072,26.5553028112,34.2402472714,32.0835102591,17.2231993648,23.3120230264,27.0141822322,19.7767845126,43.9858994262,25.0790879089,32.0842831372,29.267336994,25.1152550088,32.4381737614,19.4197162686,20.7621943851,19.7128976913,14.7883119636,24.18074323823,28.5809915596,26.6125230002,13.5478979492,28.9945300892,25.2078505208,18.9246657654,16.17655838388,24.1993586261,19.2111161204,16.1503034058,25.87454837763,24.5013627146,34.5106138805,18.7840123474,38.5968312274,20.7991191214,24.9423532012,32.1165694278,19.46500050426,27.5769035539,24.587514052
37.0600614879,36.2892742959,38.0921451439,41.3167440009,40.9212889889,43.0234800119,29.8465789409,39.7860511953,47.6856019571,27.2610664849,37.96978722716,38.4803033999,37.3414400769,52.4162510829,39.0473086039,37.2306644543,29.9221993389,42.32271135759,37.3659032999,48.0440652213,20.5117113317,37.2711795613,39.3994769739,39.3918102119,42.5364567169,39.3005900577,42.5959584377,41.8157278919,33.3716157049,43.8679416704,33.74726585682,45.0205634169,42.6256211499,41.8475118349,41.5048831324,47.9836206154,41.1624651988,37.4238881121,1e+08,45.9256773902,48.2255258481,41.3381168339,42.7974452897,21.6985519969,35.7423786229,45.5828434673,43.2096693745,27.1803282999,44.2672593997,41.8087067158,40.6770632159,41.7643583369,41.198308410433,45.0984509556,40.1142014578,45.3188805454,33.8565407198,44.2950131999,37.8837749889,41.1432693796,39.1900277949,37.4785859739,41.4130329494,40.0278576209,45.0857049319,48.1990033912,44.6228117392,48.0536270739,44.6460664269,42.1486447789,43.0102399309,42.2912121005,42.9612976129,45.6043558109,41.4864542579,32.7410323867,34.1774759399,41.8232058689,47.4651065434,46.9443975977,33.5845748369,45.8766216915,36.8524528759,41.2148150653,45.4838706189,42.97812232418,43.0492397779,45.6798863439,36.6035991849,38.1573299169,36.9435834758,44.8801772059,47.8901761589,38.3614970419,36.3753501369,44.0789323113,41.5566432763,40.6915922099,39.1414380289,40.9417523571,43.0045551299,50.0305556759,33.685732508,44.0107655939,33.5073527809,42.8149571001,35.5820031509,44.2152019629,46.8381623599,43.5135024099,44.7059857449,23.7989380304,38.83133508759,41.2656143893,54.7331412372,36.1404233819,39.6477428491,32.3237459929,35.7387403529,34.8370666589,44.0757138705,40.4152166199,36.2060960639,45.7681605245,52.8033305612,28.9552106793,37.6766525033,33.9624015846,49.1853955399,42.6543863093,35.4105446699,43.010264276,41.6422048789,47.0884738499,23.4125170659,41.9488606491,38.8114781009,37.8711444149,46.71012307285,40.4281750199,45.3319069613,26.7067375609,42.8731296929,45.6087821139,43.6897654599,44.3333221969,44.0524136609,37.2769133889,43.8418572353,32.4677620834,47.3072839439,43.2890956663,41.0554808707,42.5339117009,30.5297115511,45.8830619145,45.97709547023,42.2405885419,21.2794771589,43.7645454007,28.3065387217,41.5652540719,42.7346232749,38.6271839848,40.8939900305,41.0850797317,42.9958883649,35.3880298859,50.9880366229,42.1693173466,42.9034442649,43.7369519822,44.7484923309,47.4726484465,32.9785710253,43.02648423185,40.732196249,36.3389204716,43.7543793598701,42.7970049729,45.6953639315,35.7427765669,26.3874548909,41.9021031225,45.1154715993,39.2038290079,48.3777833,38.3051921201,37.3218844169,40.55436611173,46.5402229203,32.7047534297,44.6906640909,45.8385984619,40.2628834339,43.9971614069,46.5812642539,47.62252053272,43.6746013706,43.6523043985
39.3887278313,41.2738944873,48.5409844583,32.5449694283,29.1598197013,33.2842392443,42.2839186063,38.6831752049,21.2243529579,58.6258839893,35.07978729004,37.4473606413,30.1593290669,21.5798597253,47.4234770976,32.7371030296,66.0238021733,35.12739652201,41.1759522433,24.6328777789,45.3396598581,34.7162782993,30.1608105463,34.3718111943,36.2206999963,32.1555757516,35.1146036353,43.5912931663,60.1701692443,22.3562164313,27.16181681552,48.7728698323,19.4160641093,33.5226940487,29.0800207133,25.5132671522,27.2564837871,34.4674281301,45.9256773902,1e+08,22.7762021158,21.9702699773,18.7486699579,40.9993258083,35.6370977383,29.0893892193,22.6899454239,36.4202336913,30.8500839101,40.6094377489,21.7394726263,27.5402639903,19.509946942833,21.1095424477,25.0830809342,17.0976059299,37.3567120372,17.8466630063,34.1889752083,23.9098866249,30.1484204753,31.2476524093,31.3454340863,19.6422944644,17.3230402293,27.352378377,25.0306325746,24.8879338743,18.2837096226,21.9174587683,24.3364503123,25.2097451369,14.5617156073,24.8762276861,26.9842275737,31.6175047641,33.6382561513,31.6464013893,23.6924238948,20.7962095701,40.0918412823,21.6663960194,28.3204603613,20.8381409427,36.4485600713,19.61631991968,23.0410380313,18.7834091633,38.9981526903,33.7474360023,40.9077497557,21.7195985834,20.0085978834,27.9035283586,35.3428329853,21.8432635557,27.6722689063,24.3191548793,31.5787400947,23.9313746387,20.5149230793,28.9976779257,41.0274236722,31.0772823713,54.4909392593,22.2520704314,39.0996951993,27.1325230756,21.1707141263,36.1147601033,19.0901530566,44.6136183555,70.4489600513701,42.3613752673,50.9529225229,37.1423829893,24.3433745351,35.0493056583,32.4976513223,33.6706646113,34.4845714611,17.1333129483,33.8699633743,23.6817112509,59.3414384204001,42.7430866109,34.5177163467,37.1579510347,22.9822234493,24.2099495331,28.9228065773,21.3830088134,37.3311093203,24.7139933188,48.4081009656,27.5741940818,25.876377159,26.7689781623,33.88912087725,37.2546489043,20.0240888221,56.7138714403,26.3231252753,21.0156577136,24.8625336623,26.6904285643,27.9758068823,31.6913862213,24.4970397287,34.2772226899,18.7706880793,33.4215064108,29.0790957855,43.5788304393,52.7360007853,20.0501512979,21.73919325103,38.2120222263,45.0869949723,34.2420835521,38.51689271,22.9728493483,32.3086605903,42.2499906382,41.3050639529,41.7217885305,23.0274666983,39.0529438993,29.6242989353,20.5335748956,18.5183030161,22.6097795436,23.8723946983,23.8180674442,28.2897923457,28.9402757644,28.5069840705,31.0731535831,24.44385641924,20.1545432083,17.1747409922,35.9466855423,49.8910459553,24.9963348039,37.5464674667,32.74384570403,22.9210825515,35.2664161955,33.4017015933,24.83562202113,28.3689470161,42.2235865476,37.8464261743,23.7580446254,29.3956332083,20.1087001793,18.3365649223,33.24838665848,22.0122389276,28.1835689825
38.6094480322,40.1130582232,41.7480552442,28.9250516252,24.6282537792,32.9551010542,39.3877417692,38.4478767876,20.7461594592,56.7960722142,25.24865771394,35.9829519652,28.9687468016,15.1093205456,44.2145995432,33.4160772272,73.1658629772,27.17669795471,40.8794661842,20.482135172,44.686054986,35.3413587112,25.7307574272,34.4074994682,33.5035274732,28.0761148288,33.5964676962,45.4330175812,64.3431206572,18.7344842102,25.92474865766,54.2447728782,22.3570108752,33.4826905282,30.6683404431,15.2022941111,24.9941246124,32.1054016724,48.2255258481,22.7762021158,1e+08,21.1713441742,17.9961083826,45.8340697632,40.5555359672,26.4624375972,22.408409479,34.6489647772,23.2671599748,41.3451655798,23.7781624212,33.6682153352,22.141755536733,12.8906833808,23.7189488254,21.7906342377,37.2950711899,13.7267350392,32.2119278672,28.2651995529,27.2904856712,34.7978294758,31.0731121752,21.7184614022,15.3878868112,16.9112904799,20.1169587055,13.9214754372,18.4114458902,25.0647092322,20.6081455962,28.3442475844,18.8692547312,20.9994195578,31.1163365492,29.7366802751,33.1823275782,28.2900577932,18.4890947667,14.463019613,41.1069703412,26.5657165772,28.1852679582,23.7662754466,39.2987416982,17.97956312496,28.0803834092,15.9836197022,38.3894973662,35.0478825812,42.5986090645,19.6984653382,26.1585414532,25.6025574312,32.8674756962,20.5038728486,24.4282545352,27.8953513132,33.1676937758,26.25853995,22.8649386912,27.449723372,43.2566448823,25.8768595132,53.2041115892,23.0951665956,37.9172538052,27.5794179252,15.8948364002,32.6779992452,18.6556254766,48.0889677965,72.20538959991,44.2241746592,47.0466188906,36.6669131822,24.7382890748,34.3871631312,26.3738036262,30.2274987672,33.4195279842,21.0133366662,30.7767485852,26.1498177958,60.4453006842,47.5332806388,32.0804174164,41.0484822572,16.3510122092,23.3648657108,25.9421713662,26.2277414203,39.3441579132,25.5245278047,48.3213780422,24.9435378227,25.5123314952,25.8179296492,27.5875091093,32.7283849152,24.6280045578,64.3818699832,24.1708374892,21.2637519412,26.7721873212,27.2165661266,26.5592251532,27.4118076762,26.5286573938,31.9658628992,19.2435455492,30.3482156921,32.3651271536,40.6469302952,54.2549926092,20.6755196878,24.77442655843,40.0372796742,51.6514537772,33.2643664304,34.5450794478,26.4012467212,33.6473037602,37.0486910864,44.1621627256,46.436776806,25.6789794672,38.0334553102,33.4822356732,22.9311463608,20.6122506416,24.6150038039,18.8783573282,11.7871522094,27.0110535426,24.8765345821,21.2036212569,30.5810273143,26.09880295414,23.2342681812,15.722873526,33.4410577912,48.4084022602,29.7073737064,31.7582470899,33.1501701362,17.571356663,34.7265947384,31.8395853532,26.32088524491,21.871177717,38.2189718415,35.1353421582,30.0440126716,27.0259581092,15.9169079272,13.4304433542,30.53291896402,20.2156918865,23.5114440984
30.566107614,32.637688749,42.27014695,26.842360219,23.870344735,28.917348617,37.615248247,32.2778158848,25.4008659242,52.616935806,26.65839581514,30.066761723,25.9357754164,22.771035016,44.170258313,25.744157293,53.453598965,28.27442421011,31.276380668,23.5510664014,36.7191452618,35.130236591,25.419758092,30.525971473,30.724725677,28.5050057378,31.351521896,37.774094323,48.367580174,20.674679812,21.73631009446,46.402007126,18.778323964,28.055686718,23.846857333,21.3867034913,23.058780107,26.9973289414,41.3381168339,21.9702699773,21.1713441742,1e+08,19.5509999634,39.872888267,32.915133361,24.033154789,22.3910473126,34.704659098,26.6093560736,34.2489792178,16.293555489,23.326244686,18.290904220066,20.9127780977,17.0325997779,24.1885181075,36.1409817701,20.751178272,30.684097602,19.0117382377,26.442753663,28.758016116,24.074248442,20.939315872,16.484107584,23.4603985629,21.8084577513,20.782657723,17.992618247,19.806945304,21.094365002,20.3024856196,22.688492742,23.45866052,17.85596437,22.7010135239,24.421188728,24.48674253,21.1043848215,17.8655398232,31.030229285,27.320496828,22.269956759,19.4404831444,27.792713478,18.14515884928,17.036516289,25.571087409,33.456074087,31.697914389,38.7070106126,19.518509455,21.623526316,27.84309535,25.411328734,19.8086082288,19.688423042,23.347716481,27.3541533746,19.4191441248,18.243858533,21.3718386594,36.7327057101,26.481625155,50.771965648,16.2468806178,32.163516832,28.421916729,22.214392048,33.158160917,20.956882545,42.4393352107,59.60291073769,39.741033583,44.3415948844,32.636047373,18.6302415232,28.339408795,27.735852018,30.710749103,26.1216137556,19.580097974,26.407253242,19.5816970176,56.21806453,38.371024596,29.8611253622,34.6741879247,23.766022661,18.6422425002,20.77675854,18.1836119461,34.260961641,25.7122690895,40.682962067,24.2701611005,23.757089812,25.55524622,27.21418469995,30.655736479,18.7670208466,46.458567561,22.015961625,24.950796816,19.176056588,19.116998154,19.162345054,25.792563092,22.0083077796,33.3498167965,19.551448243,31.2347155034,25.7173453118,34.521274479,46.155346425,17.4594318162,20.98984437003,33.408476412,38.651488483,27.1878236892,33.327998765,20.318024603,28.609054122,39.9698516019,34.4762358956,36.2427389176,18.269369251,32.644889571,29.069036957,16.5819030393,24.887108343,19.8273372862,19.814095041,24.8712960206,20.2515755344,26.31183842855,21.2422718696,24.8335886033,15.35995891003,17.220122851,18.5739917778,28.207298577,39.337017741,19.1427776022,31.3362664477,26.807260079,20.7130242808,32.9661431302,28.654040401,22.95919108683,25.3598121608,37.4633052913,33.09845943,23.506830862,29.74083665,18.292123964,24.524513825,30.27031617474,18.8748226463,24.1858323822
36.1423026654,38.893867718,46.6425099794,28.7824857962,27.419564129,29.266304214,43.4012248006,35.6948096294,25.832340607,58.4760591126,31.77262424454,33.1963438356,27.3727119242,21.5621691076,48.5818461034,32.9395966342,62.9655445752,31.12456690531,37.9552584046,24.9378387606,42.6481536096,34.0004705554,29.0784020654,33.1980291448,33.7859764014,32.9740900662,35.1043835558,41.742935599,55.8248751566,23.4461924898,26.16436346146,48.2226410934,16.9909408106,33.5367737356,30.1695210801,22.9058767137,25.9286268308,31.7241096736,42.7974452897,18.7486699579,17.9961083826,19.5509999634,1e+08,40.7292345192,36.0156379192,25.527075772,23.023871897,34.7716851806,28.4290355364,37.8270917528,21.7233724774,29.4485302756,16.694974590733,18.8949191882,22.9806181011,21.6643076057,37.8746231806,19.1660769898,31.6951138882,24.9846307515,28.3748418324,27.7837014586,33.327948789,19.0469134874,18.0508597184,22.9020032767,22.9334449867,22.9887326226,18.9158625566,22.7829375038,22.7829172394,24.9483156304,17.7268006796,23.8928123826,22.058595495,28.5043872565,30.7556452946,26.4254366526,21.6761063051,18.508588139,36.6124367206,22.7262262604,27.882463166,21.4982686802,34.0199580838,17.63686436928,23.1968475446,19.3439642346,36.548745443,34.9287475154,40.4783018681,21.2762516722,20.9816705394,29.5753555878,32.8884453418,21.9280966988,27.4212616388,22.7749590448,30.6966521,20.7324109236,18.6087377136,27.0325338402,40.5990383513,28.2171982076,54.1077666228,22.8807901054,38.0795746832,29.9246237616,20.1302330894,33.4522095162,19.8904158454,44.6885368071,67.66680361389,42.9039175534,46.8527139162,36.4989076882,22.4302309559,35.6065664106,31.5697078754,32.3488253874,35.989764946,19.7457614696,32.8978278292,24.9372870258,58.4965952876,43.298413825,32.2538202044,38.8345695179,23.5308645784,24.1678961208,24.7257182078,22.7293371399,35.69837533,25.7162703753,46.6573020146,28.8205130205,26.1618637938,29.7920992806,32.60329362675,32.8531609268,20.0593787568,56.6351709392,25.1369627304,23.5607157306,21.9624306548,22.4347837864,23.8054910658,29.502849865,26.1939973188,34.7441466313,19.1214746434,37.4219292716,24.8428331294,39.2459037956,52.4606789652,19.7926744992,21.93472223193,37.1443049078,43.7618114772,31.9406563076,37.8884223404,23.905172814,31.1017548222,41.4701709313,37.6900158816,40.1715029516,22.997120717,38.5389159482,27.4542579796,20.2340422019,20.5643577238,22.6267568183,22.7168292606,21.7712886514,27.0656169298,26.0053802615,23.4848937851,27.6638838525,24.94156548743,17.3431337824,18.0925027176,31.9264442688,45.0834775014,24.6137547078,33.6165473931,31.4832915356,21.4063555816,31.4008321926,33.7611462246,25.94176291503,28.1213006384,43.3134865097,35.06735481,24.7605171612,27.3699067554,18.8670819702,18.9271111456,32.11917308422,22.4705649261,26.8323138512
