1e+08,1.2654894708132,3.64766075052138,2.20715176313602,3.79023399697077,5.84714009282065,5.81391212796256,1.35289644160194,12.3507123628577,5.76892180998906,10.9212292115108,2.08924973173802,9.09719610248956,9.150116407702,5.22939408515572,9.1571686995704,7.14343604272791,10.8373154095064,2.53070836637719,9.39094740884534,10.9797297548502,3.70781624577568,5.45012596810941,2.00257921612399,1.158563595027,10.4629022007264,7.86827430635829,3.79913527362906,5.80759186024199,11.1300033815908,5.0308933839569,12.2130670490149,7.27216719300393,6.88739131907921,7.82567228263152,7.34645011347319,3.83970920567648,2.91884122757791,11.0591370780204,8.19398969313892,7.89008014272427,7.86327176577297,7.74460969692774,9.7059878133147,6.42095911381162,6.8798639030018,7.1662529444151,10.8566040787043,6.54241454461075,7.64652602258724,7.37677081035273,8.01592484157101,7.96423387682807,7.69199112303847,7.22161269305259,7.15775335875692,10.3846321122355,6.86611788419989,2.4494527256504,7.34686753017374,2.18961876001338,3.18486942976632,7.0515723760073,7.52100571702471,6.98718391526929,6.41798400634758,4.92386791055157,7.30307721386677,7.17441689305605,6.60319272748276,6.40075997126612,7.32268854095064,7.50506101794704,4.55822257468504,7.71537321752362,6.42575245790201,6.68500017522841,8.19881742332032,6.59921990041114,6.81811626903227,2.73733822462185,7.72837942832693,6.92260102395975,8.01838159107085,7.34672120022248,7.90902930908693,7.79906092600593,7.5598879098296,2.39115163543962,7.15415474970515,12.0969961601441,7.26721558142465,7.66911468852493,8.74639437242759,6.59055531583852,6.75204171923595,3.83438495082928,1.78031194447131,6.54379888776694,8.07208967212548,9.19837347683733,9.56823389301465,3.99358291022377,7.96912171460606,6.26846201906743,8.99268846875796,4.43989764909085,8.66134247633552,8.56460017998118,4.13176309889923,11.5254128019476,11.8011843262422,12.4383600967484,4.69707523493417,9.9396325338335,4.02197154815952,9.19651084969683,7.798088469997,11.6157818424996,11.6913377663364,14.2376824278491,9.51969956398344,9.15620056782047,8.87711450130318,12.7789311616057,12.7786239193596,3.03937733353269,7.22203088179558,11.4721844607417,8.76488681525029,8.07648992280207,9.82689943952377,4.33353050019086,10.7702008288965,10.8200332858848,4.8589418583066,9.26740509893087,7.98877658983872,13.9415585195269,4.01248654517744,8.57469863989356,9.37605187606361,10.8406070388831,8.67962841247624,9.42429039885778,9.00204121621552,9.88550278424105,4.36734400550111,8.41389412440844,12.9564503158437,8.50744651009946,13.6437280861707,5.28327983282998,3.6793955603805,13.1162310368339,8.47580651696124,8.62240905478539,4.30601852188404,11.5158930871893,4.83790650871347,13.5201847095724,9.89144257438507,10.6911997710579,5.78051306231751,6.88649635456359,4.7102960819086,9.91612126023444,8.50857543412966,10.4191255723727,9.04976838758881,9.05977731691014,9.31852922326695,9.25282815900072,8.83319320261036,8.2488204036751,6.72897187848984,8.44380620616484,4.87290392311832,9.14869363561754,9.1184166415659,8.32225986401409,4.99006444675869,11.2702068467005,8.99201824178421,6.20492551223493,6.00765322349968,7.52551651384438,3.15311974597996,6.47173533222579,8.81568976646116,9.04837185015989,13.6601084824587,4.89436672093506,10.1780970895596,4.55878798611001,8.81613566603775,9.29061031481515,6.18907218848737,11.9822881261759,5.86345112301935
1.2654894708132,1e+08,4.006988965104,3.20515107628963,3.44213555921711,6.65316949307279,5.51368255456852,2.37713915651552,12.5346205715345,5.9641299330383,10.8370129325824,2.95072937106967,8.87187409554734,9.32598141561253,5.53864438224075,9.31523755498848,6.42129567788503,10.7760590622674,3.20900703261022,9.70322280530163,10.69196482782,4.32812832907817,4.98965572502344,2.84381122721084,2.11737502003574,10.5423623236091,7.85708629785323,4.73888805289933,4.99454718168545,11.1510440073801,4.55007075429265,11.8806863358008,6.90334356905612,6.38840847711151,7.30908473426298,7.25258927874145,3.19346186367164,2.34292147398486,10.6432207854592,7.91868666922454,7.80603734903544,7.51900864662322,7.43177421814782,9.25240724993438,6.02678949062132,6.38850980055126,6.7986140426212,10.6019614290005,6.30662477292322,7.05442569978561,6.896805114637,7.53139601066985,7.65452797392036,7.57092078278684,6.79745539065811,6.82251877977695,10.1684683185911,6.66466240685083,2.9283822358564,6.89721761549782,2.34447497901098,3.72389209354564,6.5796886970236,7.12475932282209,6.6932022039334,6.24822411321352,4.35487200536896,7.19844339985193,6.89709637603913,6.20506954278143,6.09474457451862,6.8821868835531,7.25879195725962,5.05928965885862,7.22292243226462,5.82940077941073,6.1381529422134,7.99038985081238,6.30843293177572,6.62615998083331,2.366225929547,7.39599116200549,6.39418700630004,7.50061072617724,6.94179605558564,7.62622918393001,7.38708527369522,7.3187324412219,2.26849725518879,6.97568848400388,11.8642781922726,7.00184522788026,7.38476995921269,8.64643769331694,5.98395262875086,6.37687181739954,3.64412950943479,2.59197473923966,5.9691451527313,7.53160871950915,8.89436559341976,9.26505505517257,4.47028616720592,7.67824031816995,6.5555105888319,8.61359916601937,4.4321068288297,8.35293043572265,8.39456153755153,4.79708184695486,11.6213637478688,11.5253476311016,11.8157148442121,5.34845849788816,10.7536687924574,3.89482306828971,8.76834270438006,7.39337021317012,11.4486078971169,11.5673791821051,14.2914531845096,9.25357203421996,8.76515516839833,8.49755443756568,12.7232928917306,12.5557051133539,3.21123651923742,6.89208958747927,11.5019847083501,8.30961231287306,7.58752349181287,9.49630432596084,4.96501364376722,10.8414741733644,10.4867566719486,5.07692583404539,8.84408346690728,7.69889364279524,14.0005954114873,4.41244100223818,8.24505450088876,8.91013945726528,10.7595387756364,8.4567487102924,9.06678566521604,8.68210832641826,9.57186601698984,4.39659231901548,8.06471113293167,12.8075899360427,8.27066993082642,13.7308949751707,5.69741414115004,4.28230107496778,12.8926616585053,8.26877962127478,8.31242224327539,4.99764904876234,11.086078585858,5.40060232961025,13.4272075516323,9.48164296622066,10.1699889082251,5.83073235107633,7.53542243879599,5.29670712286161,9.52965763271437,8.09926858227873,10.1481208422555,8.74188118383879,8.85077992501078,9.00837448848967,9.12512652763164,8.77233652461713,7.7165371747144,6.67836557415645,8.2182548206607,4.57339491976518,8.80206022991331,8.77507873120266,8.08303056506537,4.58839958269971,10.9853345685513,8.59432690508285,7.00213502597055,5.5573212175444,7.37015608173753,3.74558019474741,5.96067010004547,8.40475812806186,8.97049465805147,13.5927844315612,5.65058937765396,9.87156523177057,4.95003077077687,8.59371972782888,9.16607154717052,6.91720471042182,11.9287421925271,5.71673105967666
3.64766075052138,4.006988965104,1e+08,3.40954962106626,5.9957241075127,4.54060379955499,7.36177245593413,2.99877203969316,13.4267299916681,4.73982341719457,12.0523776828177,3.07788954475994,11.1833577582151,10.3354102113332,2.65110537864946,10.829398850559,8.9254495044496,11.8593065443926,3.14659719345848,10.6108613883926,12.1041418088518,6.29658694285253,7.62978723805388,2.9062987642045,3.3835423317492,11.0596192266623,9.37239443619248,3.43281775207621,7.61417109919358,12.5373413695422,7.75459723075578,12.9678178432386,8.98262609810043,9.16640040670081,9.92736842155085,9.08324837535851,5.5322501869078,5.54295987208508,11.871079224369,9.64178613984191,9.21051035708939,9.64088933210232,9.26231642727286,11.481304122837,8.72490468672084,8.52437243092581,9.07176452783072,12.1015589530475,8.35305505181486,9.66897684526589,9.14827206450247,9.87485915709803,9.62004076124914,9.37680086301391,9.14770576620414,8.52624819127317,11.5439913311086,8.4658299712321,4.44905721113284,9.18570212754332,4.4487683070138,5.30479514099752,9.15156979196049,9.11836542703315,8.63705924962834,7.92905534050367,6.74296051742568,8.86019663560373,8.9525911054129,8.54471362210542,8.42078094075599,9.32596785922841,8.82627940384009,4.10627923881819,9.67486886961689,8.92641955984709,8.98170478402748,10.0694343395633,8.46523852566864,8.27239269313008,5.73030648363985,9.37158466905582,9.21219948563441,9.90037341166733,9.27308763405981,9.22320353006588,9.62852455420111,8.66233961040554,5.06082845432057,9.22802902829315,12.8004663226318,8.72418087344313,9.29600646402109,10.0400683832728,8.97103173252298,8.52299289321111,6.32074764151022,3.53012575271762,8.69303747503155,10.1304659837987,10.5547536752711,11.1294566229159,4.55499617464973,9.64587142643788,5.34101403448931,10.5864773422511,6.01353083120437,10.4395283944599,10.0378412883481,4.18735040238126,12.8691139560572,12.9502639848689,13.8049225139256,5.18245222291384,8.68678995618075,5.52648776129286,11.0234914117189,9.94648502604603,13.2947507454432,12.592622922952,14.676356612943,10.9773698157806,11.0657345484632,10.4804061460722,13.158363057965,13.7815152216377,5.07366790712869,9.23872659620194,12.3184752844869,10.6021394053762,9.99248841788643,11.4168860616917,3.96290735151255,11.8166869849586,11.674054251801,6.4681088393352,11.1769663918139,10.0091466512023,14.6099277586143,4.71989904210212,10.0594433923993,11.3707759245545,12.4866780150979,10.3487620555465,11.0109576054595,10.6540733203631,11.3549818869923,6.18009287730612,9.91609035698234,13.4759567788905,9.72954647113908,13.6496413735333,6.53132302766862,3.59589462372901,14.3000661459404,10.0250530730313,10.1479097772465,4.37920091754045,13.1105302754188,4.18079978391985,13.7932382032202,11.4863740080453,12.304814153593,5.54834972239998,5.905842143916,4.89043612763883,11.5472230711372,10.40007222308,11.6023909374819,10.5911624850027,10.0959297975988,10.8124001019912,10.8675013450721,9.88432318919142,10.194816866695,8.08062017465746,10.1076172446595,7.08356086802949,10.675416289079,10.652594617217,9.62098050608768,7.03196986131649,12.5087488750023,10.5060574076261,5.40317981622944,8.22875993308529,9.30347302725243,4.04473925241713,8.22402192125507,10.678232190594,10.6668501750784,13.8425871660474,4.63543575775761,11.4353447386153,6.16748681514275,10.0792724871414,10.5501671062013,5.09998816861203,13.3337744920993,7.40730486592536
2.20715176313602,3.20515107628963,3.40954962106626,1e+08,4.76738070734559,4.17182464955549,6.92335439007289,1.83937874740024,12.0559765964113,5.95539684074308,11.1510732581981,1.52364343850421,9.93903530167654,8.99560190334037,5.01764987404931,9.36756917717509,8.85805875923585,11.0287577016031,1.97507325386306,9.06295979931943,11.8165752584609,3.88098886398545,6.41871874792454,1.14143139286521,1.72951516756786,10.3695944381223,8.40790775553573,2.81052347590241,7.60194732114517,11.1554377632655,6.42915381992249,12.6626823611325,8.00301589096788,8.0868447092957,8.88799428341336,7.74431467709382,4.85623903581816,4.44280758206339,11.9007406208643,8.54762204651994,8.01835004974691,8.52345857212284,8.15830174903437,10.8569039979479,7.75686084525873,7.7036876215408,7.96941672821713,11.5689353255798,7.25652269076771,9.07478484979973,8.26942750369321,8.99664508806036,8.46277038118759,8.02575822470629,8.16681871277147,7.58426854524699,10.8634945494907,7.28855701123243,3.79054821189941,8.30364135026966,3.01652719003355,3.24511080148431,8.1814782597827,8.19249630206571,7.62884042547053,6.90231181501679,5.88323443001773,7.623559626345,7.80008636855229,7.54369750087584,7.19935633099446,8.31368334547258,7.81827019089355,3.08406717378316,8.69847342319921,7.80113951238523,7.99644603317192,8.9250795335971,7.30944987882184,7.22110587791997,4.28375085354676,8.39128584796448,8.10376222320111,8.952387733314,8.43006336532162,8.25242261394632,8.62025405813144,7.75313345487601,4.14161750598894,7.99338752542417,12.5568063120301,7.76172907223331,8.23725957433895,9.19777266758403,7.99868317160692,7.42524495076473,4.76099880876664,1.89140031906845,7.89288626150266,8.99812554690345,9.79315703406755,10.2443479447256,4.52784740446684,8.74919113693774,6.400169050781,9.73089186237472,5.61111795038252,9.48399554090262,8.95467203318752,3.22367202731161,11.3981888889353,12.5740548820333,13.5409731905692,4.38467219966922,8.69263172712335,5.05635638663377,10.0247492647667,8.94182836725007,12.1166824254986,12.0604820011503,14.0042873643277,10.0528316578317,10.0996659413524,9.63942911373078,12.8383673422585,13.287718507194,3.8757960294622,8.39853113310454,11.3627174896545,9.65540136337389,9.13675575192619,10.4753622531782,3.54685421744081,10.7490727933765,11.7356648043596,5.08383686931154,10.2128234895281,8.85502148083521,13.723701384352,3.75865018345569,9.20334133581525,10.7758630244889,11.2206061350044,9.33507401934748,10.0938871018666,9.77963800883159,10.4630573504194,5.52404999691679,9.19068946126661,13.2747875790856,8.87828333660545,13.2217331323655,4.76160252414852,3.12054577504081,13.693461479385,8.97906982572553,9.26097562544315,3.67377474252935,12.5447795241144,3.89685348105851,13.623261785345,10.5958128185512,11.5509349421503,6.08590157042231,5.80661728900662,3.96100391327505,10.6357418172327,9.63120840015897,10.6100862272389,9.68195431842904,9.33895226478015,9.89734731859551,9.71572673848551,8.86784137017804,9.33314206866361,7.08357145916725,9.08442966244084,6.00434601803039,9.84846009814815,9.6654492370618,8.77242405207168,6.32798937722975,12.1000459627097,9.78183481654247,4.60442545188954,7.23422693313236,7.82654205623209,3.40803297400715,7.66284142483251,9.69162268611997,9.46328593149257,13.6480440989264,3.56175763607741,10.5374978935871,4.62949327702035,9.22967086637452,9.44400416036388,4.66920570989907,12.1477542998455,6.299614389325
3.79023399697077,3.44213555921711,5.9957241075127,4.76738070734559,1e+08,7.9643784241295,5.4099350717175,4.17730141342566,11.179909197116,8.21989042776517,9.93111186060266,5.23874685419785,7.96677373417498,7.13334788008325,7.36526040663106,8.11183280230093,7.61729237046112,9.73273044842617,5.76205739190935,8.1802969522642,10.7255507870693,5.34241884618376,3.22324564692341,5.06921342532557,3.79408083499813,9.76023241254022,6.26561378291053,6.71753497882769,6.62398557814432,9.7640206746485,2.88769677948685,10.9397341101477,3.9216989947785,4.75084871969572,5.33298521957239,4.46774989641357,2.56309429275525,1.65011418171397,11.1753651269956,4.92500892200817,4.79083850770669,4.85856631582451,4.42222849879979,9.13326335006085,4.71587925679321,3.61680399330992,4.09843669893828,10.1247163150951,3.77146930159036,5.60891703775213,4.2636006067402,5.22210943791761,4.78203407041589,4.7555868721924,4.2544141994206,3.74421707434503,9.31740939139807,3.43513980612421,5.36392751327624,4.4017895250601,2.40893347972799,5.56380312679025,4.6101565781755,4.09206730402124,3.6087256867676,3.34981006915234,1.44976514868871,4.30858351693657,3.86481888169067,3.34157707002323,3.21165990912777,4.50361804412884,4.1547454184978,5.78182387854163,4.8748684276798,4.19561127182519,4.50775082713292,6.17841197734794,3.26716216234789,3.41922673055933,3.70346744637423,4.53908810735934,4.45792564891839,5.04311295896339,5.00352668635026,4.56504277688245,4.87962237095361,4.22729741612077,3.49295078047686,5.34077009913311,11.1882211901421,3.97237384316481,4.61504040046655,7.01825945446565,4.75594071211386,3.19702661840773,2.07019027426253,4.88768357010728,4.21822440758217,5.37438720139863,6.8484316524102,7.57353605680949,6.66694994901686,5.92360739415524,8.23979110151476,6.86474513610999,5.73736729951358,6.71533883110051,6.02591021439737,6.02343798470134,9.93335129734518,11.4870091564072,12.1043753737298,7.08230757965259,10.5123603666614,4.73704154469629,6.96899867184046,6.23047346477159,10.5789047367264,10.6728288616582,14.2765775647223,7.05433145767333,7.5115527155456,6.46979264480511,12.1955959186617,12.1087017426041,4.59208117273802,5.84839659226836,9.82301220582259,6.54271796914321,6.00512081526073,7.78906004023214,6.47137625689239,9.21459466480214,10.6432349331272,4.74215497023739,7.61349933928161,6.04223870322448,13.7994802210668,5.26651022597644,6.21856253117644,8.97812250529754,9.45625118578494,6.43961723609318,7.04017776937757,6.97168095313081,7.63800100086853,5.62274715679985,6.14246936563973,12.036379343765,6.05257666650445,13.5669981898847,6.11353475597672,5.77614482901836,12.6831204526599,5.97111367025702,6.1847617551314,6.66923222044782,10.9633952044049,6.67069926506123,13.9260926627522,7.689055969011,8.65742932911724,6.42719932918002,8.85881466403983,6.80150511007187,7.64793052677448,7.06751965457938,7.86373253747867,6.79736227313272,6.64160340060595,6.9798081640812,7.2267567632314,6.2653928050623,6.21243519725905,4.85067099107633,6.12513882389317,4.40286432035663,6.85365011879356,6.63994701372664,5.74402713766413,4.0682600114255,10.9109953310011,6.73848842777913,7.82213519663255,4.55866243527962,5.14952619791439,5.76486117243916,4.59861680579518,6.75162012016657,7.18299237213327,13.9473373113671,6.57222054499385,7.79374887309231,5.91554118435894,6.271800744959,6.66753970178347,7.77813505529301,10.5408577574836,5.06242175588118
5.84714009282065,6.65316949307279,4.54060379955499,4.17182464955549,7.9643784241295,1e+08,9.62510204481339,5.08502188666951,13.3155538041977,6.80624929858059,13.0940199687484,3.96985131806972,12.5178154480504,10.7664510887057,5.41017061017824,11.3757238025587,11.5125741403233,13.0320455523876,3.99542510222922,10.6238845292694,13.6854512332619,6.43647882042691,9.96188688314598,4.22835523955748,5.53287675513565,11.6567657578866,10.7630047358103,3.04578179807026,10.268184970021,12.8347125780391,9.57166641087213,14.3542313286038,10.6163399768634,11.0220492831888,11.6913579005494,10.4041746393047,7.68139320118859,7.68696494635368,13.6086463268018,10.8535947686848,10.3093938618692,11.1146201203303,10.5759635858897,13.167894036361,10.7349881563664,10.3266001116495,10.7945258003102,13.4853053069545,9.96931171011608,11.9028885233829,10.9682690772684,11.7348984940851,10.9563605265744,10.5528007293648,10.9105572277826,10.0282944090871,12.8323214234775,9.85770749621503,6.53287658123141,10.9997478425564,6.23091273386987,5.78783557353789,11.0227614232709,10.7542816834495,10.2995120947188,9.499923694875,8.81156976514468,10.1901504479666,10.4835945081383,10.3684867745241,10.1021438789634,11.0608535536276,10.090964197481,3.66090508597412,11.4230152106735,10.9482513959349,10.9195105475645,11.4684717001362,10.1172654737777,9.71015429569541,7.40667884974023,10.8443276009396,11.0264480049953,11.6863884404646,11.0864262760923,10.5256605778856,11.2319550905822,9.9244433811417,7.18341541770376,10.6815225105876,14.1625933548057,10.2046477077173,10.6325950704003,11.3878625265956,10.9809192152427,10.2189141190843,7.60047233589339,5.1058581846029,10.7165212713774,11.7370380328885,11.9863398554714,12.4879627710677,6.38511029231385,11.2726309538005,6.88287261052561,12.1201102509234,8.30163293028111,12.0285463074287,11.314365914412,4.8235565309896,13.0613637183909,14.3785071283702,15.3389270168114,5.68897082577789,6.97260188382507,7.49528561987068,12.67421413586,11.8186823489943,14.1572955552161,13.7771214649261,14.5604956396881,12.3394401778699,12.5577101127315,12.1081973705104,13.8448962525699,14.8919521827764,6.70341699362646,11.0104404018963,13.1079733085862,12.2943693177346,11.8775906509489,12.7412468489533,4.39600891571073,12.2799108262205,13.5533327074049,7.44809261814276,12.7261192696842,11.5587242888748,14.5952022830952,5.68345957966796,11.5521935392128,13.1283620483719,13.2798911531974,11.9095841266215,12.4328556942238,12.1307405616336,12.619668836256,8.23839046299147,11.6219172185213,14.656208255369,11.0091009346961,13.6600391705974,6.59375480915024,4.98302790392364,15.2627988801931,11.3402908060935,11.6635887360165,4.49515520713804,14.7163329139484,4.41832386441451,14.2788315317333,12.9877889796998,13.9812254686707,7.86211793015895,3.59195432695484,4.63284166755098,13.0070772517135,12.1527711219208,12.5495681918104,12.0459857597399,11.2849905157035,12.1381905648242,12.0632701538852,10.8703027055624,12.1133428593233,9.31747004689403,11.6157115034158,8.58326845866188,12.1436132836123,12.0262386515352,11.0262343345124,9.36237444172972,14.0535960422339,12.0832077484151,3.30385593636532,10.1707990580218,10.4052457762923,5.57496213676671,10.369103432511,12.2183677153432,11.7372889072909,14.2637009816822,3.94313340181163,12.5765948756633,6.82711460032448,11.3772610684475,11.5464391821121,3.44013230737769,13.9089494387143,8.56923104565958
5.81391212796256,5.51368255456852,7.36177245593413,6.92335439007289,5.4099350717175,9.62510204481339,1e+08,6.09962981915377,9.52371521349227,6.03786914353429,7.19607036700985,7.17780580779954,5.8325640508051,7.21983298269162,6.90319960366331,6.10484452832795,6.35017170796488,7.14260525054415,7.20612134090906,7.25141582901053,6.72498550047372,7.94669937178438,4.6555502195165,7.17630765459847,5.64982157607796,6.71257933275977,5.54497042419592,7.39665524690102,6.00398394576803,8.02497968414507,4.62124798059776,8.37926313468294,5.68133714063477,4.27300404711271,5.2096441311184,5.72878086162928,6.67095446990647,5.32239415893625,7.40352355201774,7.00406261164204,6.91322040372571,5.8421966897409,6.81128995619675,6.64981300673512,3.45304817459707,5.94136233505542,5.31066868635898,6.59962145656346,5.20962745224864,5.42498278202245,5.43271120152681,5.49258088440709,6.39309180041473,6.07093466183948,5.13327266124734,6.72041876497197,6.36956638208767,6.35223183749863,5.94794054633477,5.11772481023192,6.04187292393073,8.14175441659719,4.33410007758654,6.45275910346724,6.1322265727993,5.66912329046669,6.14810352268332,5.90687286763032,5.76372455122884,5.12899583198017,5.02424977917012,5.01920086123677,7.0825176749382,8.82002820957832,5.3196041585364,4.56727051393748,4.32028156983415,5.54308885563978,5.5061177859766,6.27070526036895,5.00149015430035,6.09200082818547,4.7073825684201,5.85123569118108,4.37425452674643,7.05409730537463,5.57900363543343,7.58006228945339,4.93372631844083,4.31186904969876,7.88150580481083,6.15954437015446,5.99811602687728,5.51910203131737,4.31212042410271,6.06502903702658,5.3557079321683,7.18646170959922,4.49813401142635,5.92174848355537,8.04559584816608,7.64109169378795,6.67804723231196,6.67524063625264,8.20255108937155,7.68753743627635,5.93336925625164,6.55833816705883,7.23392737694607,8.1871983466296,9.25148834867258,8.40493356863683,10.8270060619367,7.54113414557357,11.1621627108855,6.79905882730023,7.20828539958451,5.25524668758325,8.38948963592451,8.48453561877301,12.8994983425619,7.84978157189588,7.02684332090512,7.4546527231698,10.0623439935258,9.45603563767932,6.32769522106469,5.36251835641756,9.23825331718621,7.19853606875053,6.59519994485351,8.00862485338268,8.58590253236153,8.88428503934465,7.02358383176023,7.1832459385206,7.20250059217536,5.90331828177562,12.1696486446471,7.53324820238931,7.78216147750534,6.72646824365834,7.93523307390001,6.94276056624986,7.82405928651457,7.17897441330298,8.41629235202186,6.16697415478805,7.18214672664567,9.08047663040822,8.14452629305449,11.5964555088615,9.5327129276581,7.58214771393803,10.2404580089271,7.36942279239392,7.45709018639408,7.96126207594748,8.45264227562062,8.93620790652688,11.4496163871407,8.20897482628832,8.55985516595057,6.83231872424259,10.1077710633714,7.78425806189593,8.01246253681122,6.25112357800292,9.67722850735172,7.78119323504823,8.83324869454676,7.91505605787847,7.16604191960812,8.19673743496923,6.58656557659075,6.84458785356151,6.63942584793301,6.48578782371763,7.80298512063824,8.23399878381268,7.85998746418893,5.76294667175196,7.46207089374244,7.7879128158625,9.41339936585869,5.76562775116483,6.62095005535377,6.71845569462871,6.22177157784565,7.12562959583998,7.15045135600407,11.4453761763662,8.51393102864303,9.31085323205692,8.04549180813094,7.80087277335928,8.25185243608109,9.94097900913218,9.08748899559849,7.34537758440607
1.35289644160194,2.37713915651552,2.99877203969316,1.83937874740024,4.17730141342566,5.08502188666951,6.09962981915377,1e+08,12.4151285147517,5.58185538053607,11.2069652503599,1.90801383816369,9.6887886162389,9.09610015580495,4.63961041029028,9.34013730254041,8.01672983357592,11.0651412935175,2.55503987471984,9.34502958964037,11.3846970050155,4.16238951561866,6.05231860050199,1.90118056094664,1.07137670514182,10.4492504354256,8.10173529853993,3.05559939754879,6.76772897822873,11.3585852917445,5.685824259416,12.5668299965592,7.53910060730834,7.5112145182738,8.4149160705837,7.49663060598734,4.31614300477115,3.60653192855781,11.5868760178863,8.40572498355447,7.91695726905918,8.22079651444902,8.0099674418488,10.4469520270344,6.95188848658882,7.24692351827316,7.55167793850496,11.2817534437256,6.85741180050432,8.3010993369615,7.78619529930343,8.4793233157124,8.26253170046277,7.86670449044459,7.63062014396726,7.36777983343657,10.7429766881886,7.00688764265839,2.8114652205953,7.74844352130728,2.31937719127969,3.7616953805291,7.57247699148411,7.81971319561157,7.2224377364197,6.55686249590594,5.36171372129623,7.39714860246522,7.41788333834871,6.93829991029365,6.72542783206662,7.78005089700246,7.65036570731169,4.30583217635374,8.19784833300458,7.15449459051443,7.32860479284549,8.62674391760869,6.87344599253785,6.89329397862453,3.63880688788806,8.00907059290814,7.54910938806274,8.53272413798741,7.75846867473344,8.07881816268792,8.21508566796847,7.65084889799764,2.9131209594914,7.56917898815614,12.3686734138041,7.43089456029545,7.93265949344024,8.95545852139738,7.31878797013488,7.04808468724894,4.21876582696178,2.16018779083387,7.12634815675084,8.66484205863836,9.44253958481301,9.90369838001642,3.89225625105209,8.33878038582908,5.98182679333232,9.36343727858203,4.75961305760476,9.07546029146275,8.70442841234866,3.71529518239426,11.6587375066734,12.2554352930357,13.2048662147929,4.42487804377849,8.90683669309928,4.27863293669879,9.68603933228438,8.35974733119427,12.077953305863,11.9219093587054,14.2897550658659,9.77236411845435,9.6784373076724,9.22920753703027,12.8829549245357,13.1658094921184,3.37715777310291,7.65383354577613,11.5144125088798,9.26106851187787,8.58995562775071,10.2007828539525,3.8857370357364,10.8346056940857,11.2187451494644,4.89028997483771,9.82881165963656,8.4164181292766,14.0114787039073,3.81509044233332,8.86101974279527,10.0478657827201,11.1850075208059,8.9560021560292,9.75057757295966,9.3563941770772,10.1895635306572,4.73360512937545,8.71987104325551,13.1075541404123,8.65342790861271,13.5155719590698,5.4408545733156,3.21937795949525,13.5590977459923,8.66397076737148,8.90162035140062,3.91638295905955,12.1906305056146,4.36649976178367,13.6284171017266,10.3095856306729,11.2226411764319,5.6370544025532,6.30979508810976,4.43653427598435,10.3156442576332,9.00867064627898,10.6506944695645,9.35245561701011,9.16056151129461,9.6141686536807,9.50004844880067,8.80439625300033,8.81638680256611,6.78985287558596,8.7090346028085,5.36238837460664,9.4630979576648,9.45614248428425,8.46062721550066,5.49169556280034,11.736579663938,9.33512007176398,5.44366773906302,6.62984159089022,7.75678937802559,2.99689506029425,6.92541494601539,9.29573755747794,9.33559594129343,13.7123250075615,4.28336986248862,10.4504502886105,4.83947760265491,8.96142347147666,9.377954637866,5.50562980096391,12.2414997893101,6.09451985749313
12.3507123628577,12.5346205715345,13.4267299916681,12.0559765964113,11.179909197116,13.3155538041977,9.52371521349227,12.4151285147517,1e+08,12.2172507143715,3.88676385499518,12.9300223170858,6.4213469910178,5.57480133035993,12.6626818823705,4.31516446374303,12.6205896950039,3.96829902856798,12.9078732337334,3.81852400792395,7.98621131409955,12.0932301647556,9.69484154526245,12.8133992468985,11.7389783639784,4.04585437432128,6.86749618515282,12.6515117950603,12.8453713942932,2.27948597097087,10.4410604993284,6.10136771613175,8.97698747966348,8.67122747982126,8.32956852954336,7.95360831195356,12.6325543551546,11.8592374974919,9.34153687938399,8.35777304401376,8.35281345317137,7.84269209138808,8.7215303849699,8.86637232702164,9.03436812624713,9.50401374831718,8.47876569215925,6.33857388477944,8.63248689615164,9.72328266150061,8.81091843348363,8.38110300379146,8.05405995472501,7.69561424603982,8.63711801759833,9.43951065325289,5.04852604861949,9.32761073892843,12.3960028451938,8.64156249395269,12.0726295869599,12.8111848160622,8.57637936690534,9.24443969452763,9.26647601860649,9.16523507513217,11.525376802871,8.30322883042025,8.7490432863767,9.36388020809897,9.04477383659301,8.51190303195553,9.2132240496633,12.5474161285626,8.50386843088522,9.6847260893421,9.20167328443086,6.79086456159575,9.13962847882106,9.40576194873897,11.6678933437132,8.43544684235175,8.94124728181681,8.59939369781311,8.30657710801314,8.88585264135642,8.08688383948692,9.82036667080548,11.9594467687359,7.41225180769064,5.82607127173669,8.78821053598148,7.97128035296194,6.00698970113328,9.5224112009609,9.6403884075702,10.7879448924089,12.6248543030419,9.6158615746535,8.45494507667696,10.2951274693997,9.5316988044692,12.9026262847405,9.80101943205406,13.5779359838652,10.4232436645286,12.3803913729964,9.1274711999515,9.38491136699545,13.025020433872,5.45531914157169,9.03900688682724,12.779686373932,12.6668511415829,11.9942558439552,13.0793024672743,9.51670822301986,9.48721175289444,6.57122812207966,7.45904841944491,11.4186593534717,9.30494032806148,9.68520757509486,10.1585114536668,8.54960778418994,8.05359112858422,12.6028806718296,10.293594098077,6.7950227619288,10.1410528459764,10.5274005709958,9.62520889008656,13.5918073053127,7.18754494999637,9.53074715531523,11.9014289406851,9.74380665578671,9.18761542940238,10.3204512488019,12.8439200253922,10.632760930442,10.7341389234105,6.25637358516857,9.16842886008388,9.97349332496548,9.69583199783177,9.95022699570763,12.425494971793,10.3868280593221,7.07755714623227,10.7305274853548,10.2692920304635,13.1392761947005,13.1224490753563,9.12004898447274,9.81835622150203,10.1080379425857,13.0626397726346,9.57267230130341,13.689010015967,11.8477727808774,10.0384141251707,10.1404975398027,12.3078273379614,13.9001169590509,12.7115144574243,9.67192291657528,10.0921139605487,10.1658412393221,10.1110126147241,10.8903218325323,9.90448500527799,8.13097413560777,9.70410115479458,10.4644303467575,10.6481138078554,9.08924539334991,12.3715264538919,10.2574172392588,10.2829211696099,10.6671380201961,11.9523755347826,8.44094737806537,10.6779902945523,12.9340745434855,11.1735737717583,9.49806500140847,12.8346369215531,11.6175956985254,9.95915166978756,7.70797070466352,11.4900482264056,12.7687224229056,10.3734168707519,12.5797612661412,9.97243502244623,9.30452169402266,13.498186153335,5.8408615885554,12.056907591097
5.76892180998906,5.9641299330383,4.73982341719457,5.95539684074308,8.21989042776517,6.80624929858059,6.03786914353429,5.58185538053607,12.2172507143715,1e+08,10.2809104900405,5.61897200305717,9.92903303268259,10.6489455785277,2.96778268289205,9.67544677888796,8.03772173942517,10.2818944201626,5.12134399716043,10.1103707752997,9.32506433232643,8.13747392556774,8.59808368122687,5.69774996019394,5.55895944762234,9.08018887887721,9.23195255816084,4.70080072818763,7.1671111162194,11.364775205153,8.68589640699415,11.2768598776201,10.1620673778906,9.168097480148,10.0641423030862,10.0609189087485,8.27875750169897,7.58444898269848,8.87393795801493,11.0060766423643,10.7103173046075,10.3831872758108,10.7414506987934,9.74776056776667,8.51349564613713,9.93123895768754,9.9371194663738,9.78643764150832,9.33962663826918,9.81042073224294,10.0131071782174,10.3006805200448,10.6863381953256,10.347504408859,9.86053896370043,10.349815205515,9.73152646901837,10.2179257265585,5.24742460266972,9.84754970988863,7.17058742842142,7.43704402852118,9.32114270643828,10.5894795883268,10.1906437761607,9.43859350381531,9.11685524814921,10.05046483733,10.1813902064582,9.68518206916947,9.53856027531688,9.84414300298279,10.6646265555894,7.47048149653846,10.1506461060737,9.28999384081349,9.1267082815096,9.90581870324023,9.80955886876742,10.0571198263905,6.61492121501593,10.4362178498473,9.52701047310435,10.5364654313003,9.32240531222748,10.8443703620634,10.2266325056634,10.8311763734553,6.34991007344009,8.97024576016915,10.575995257954,10.1626708224251,10.2581016757845,9.48656435033602,8.95304056143852,10.1658974838289,8.04731911375768,6.08764509631039,9.09761801716891,10.5449225406983,11.5737393736884,11.3949656262446,4.91450746457083,10.3403153120259,5.71748607878843,11.3186705235383,6.52299067669625,10.5888938647781,11.0808754847722,6.88225902815516,12.4549897363515,10.6560927373271,12.5664333689225,5.86102438156517,9.7850681888116,7.46486441996009,11.3645541744595,9.67307925127287,11.7536621551488,11.204744967347,13.3677036348841,11.7337228643893,10.9059865337538,11.332401093278,11.5626014733884,11.7835482538863,6.7167009332442,9.26882775187952,12.1554990535383,11.1832778262269,10.5708401814677,11.7356517630263,6.77933108835707,11.7419847522908,9.14703737063413,8.43206031851854,11.0386114585765,10.1829629019194,13.1766223286467,7.15914887763502,11.2671502619386,9.90058454000363,11.5416069546965,10.9516327379681,11.7295443046754,11.0223585497588,12.0480011331058,6.87695647515252,10.8483093928207,11.4863963637046,11.3191941710597,12.0510366001665,9.35066868482618,6.20169164286308,12.3061465122325,11.1454022715566,11.1861580265943,6.10173131517663,11.2356360110206,7.15193926679549,11.5706480677805,11.9981028651712,12.3857592542941,6.59992199940045,7.40928444602826,6.10351408644081,11.9718452909944,10.1419070948592,12.9400809220854,11.4421314660768,11.7968866459665,11.6191860558698,11.0797251247019,11.4427537202253,10.6294911182143,9.63097664897536,10.7217606496936,8.53813655115574,11.5044379721475,11.8187561577177,11.2244404157981,8.36165829001631,10.0746694778612,11.3996676904563,7.43630634145992,9.08891900463967,10.3756518111256,5.46241162575917,9.46781014775451,11.0762294399929,10.819254833952,11.6582926741675,7.04405791727159,12.5917477255373,7.94203787608252,11.3278987460278,11.8145512920845,7.83354573578888,12.3794836690841,9.13422853546524
10.9212292115108,10.8370129325824,12.0523776828177,11.1510732581981,9.93111186060266,13.0940199687484,7.19607036700985,11.2069652503599,3.88676385499518,10.2809104900405,1e+08,11.8668104755529,4.1844141604395,6.19470143559254,11.1386263209712,3.91469826212345,9.86018896592634,1.11695392738072,11.7305217985812,4.95069597298853,4.95485198198729,11.3400343342345,7.81458307612175,11.7007114572237,10.4400876071752,3.0262961247581,5.75569644978882,11.828657731013,10.268986899526,2.87893997076877,8.91418359627136,3.41660637789068,7.92312290728024,6.73104829438635,6.50522345863556,7.29534602130077,11.2595063860305,10.3999372035692,6.09925068288932,7.83785686351684,8.09054116167872,6.77173134212467,8.04500679018587,6.05043571405307,7.03291070551728,8.27113349418063,7.18769190633116,3.37306488286426,7.54735948190866,7.56397958637651,7.39362916364472,6.70520916584385,7.25533744751695,7.16867438130236,7.21692889550242,8.63594898264483,1.72562176501147,8.66276075919819,10.783266571776,7.16388978854023,10.965849607961,11.7959861088922,6.75610271877549,8.27456630234099,8.34711064718792,8.30006472707158,10.2376129392929,7.68819536422588,7.83729637596517,8.08359683473199,7.89396866340315,7.01624255993965,8.69059795859185,12.0314249309018,6.95077519725621,7.7394019068394,7.27669983003907,5.44931593020506,8.11634481533912,8.73047090654428,10.1007667228128,7.52016797227129,7.16253843062432,7.06503873025901,6.56936087495964,8.30819550599488,6.77260330953076,9.34830514590864,10.4331725798279,5.96187988910097,2.92400641207675,8.00518469971361,7.1441579133076,4.74753672213669,7.41422114404491,8.60193069421779,9.7545920332262,11.407828840683,7.75425054844131,6.85052603580901,9.40925868997979,8.43862840867477,11.3917910160887,8.5842161473339,12.1797124402116,9.22658851437638,10.6094681423303,7.75484197149603,8.73627486008641,12.2103331578622,6.27860583192156,6.61516710027328,10.4519330187154,11.6378883691786,12.8174154302996,11.6846913353388,8.06351059907682,7.55352134295706,5.19373749120318,6.0477542348601,11.0160430711278,8.50779938450594,8.1377609140281,8.98885500919545,7.67622074000183,6.21438413256864,11.2628385740714,8.65871041353093,6.80610962807196,8.70262170714032,8.912595513376,8.54242784337372,12.7568454797642,7.4387508812258,6.70416506177003,11.1053215107769,8.11730158144491,7.80773818656135,9.92918786693708,11.9186110414727,9.65205110618403,8.34607485775138,5.54601537030125,8.10843562110942,8.95949024534736,8.51309819412936,9.10187330780212,10.7584973760698,9.18432330681702,5.50398300517866,10.065278455224,9.88174708206413,12.5858189758717,12.066400245038,7.41026514695005,9.08857303417028,9.13044075558945,12.2081082734767,6.93033285607651,12.9360581445019,10.495958617851,8.80871112460776,8.50868162975139,10.8048852606127,13.6229883588875,11.8975843343302,8.51014682480993,8.30854750077398,9.83066294959527,9.10557547834304,10.3707087304374,9.01848548668873,7.37374269609311,9.49642627413195,8.72349963320754,9.91010889187814,8.07468313831187,11.0647908447084,9.22670674590388,9.41225694368435,9.93972441315097,10.2666340123357,5.74489206995951,9.52414336644409,12.8119964065069,9.52217936024585,8.78033708686222,11.5558196944494,10.0356607248875,8.60056859595721,7.0704146659653,10.26995860609,12.3161816528114,9.75730338997067,11.6287491594358,9.32677509930097,9.04092880553972,13.2742408752373,5.67021777536497,11.0849236277057
2.08924973173802,2.95072937106967,3.07788954475994,1.52364343850421,5.23874685419785,3.96985131806972,7.17780580779954,1.90801383816369,12.9300223170858,5.61897200305717,11.8668104755529,1e+08,10.3987362735659,9.93961399885344,4.80284981418304,10.080729757107,8.49802946296893,11.8182333676816,0.954286246153076,10.0069517577383,12.0108149528695,3.93997846021928,7.16070230826911,0.856744253827897,2.29915460059267,11.0750964881078,9.04149439285305,2.32307696672974,7.10327543688087,11.9266894592958,6.67173405831678,13.1631717052285,8.6303024030904,8.46269621550008,9.33480742249644,8.6115683428935,4.95692142466425,4.5098310138423,11.9366651183996,9.31811510492128,8.93827668967761,9.19612725823151,8.89967887852028,10.914689998012,8.06909807475272,8.23925532213663,8.62262761821578,11.8981373948289,7.88422949105586,9.26879149838723,8.81593288730972,9.52063568407813,9.20122667730982,8.8839778609816,8.69671115456574,8.30966514975851,11.404137007734,8.06617075427318,3.33442137248367,8.81416949420355,3.31123308978571,3.02815718967256,8.60024157001404,8.83103034475781,8.32429710721505,7.63319856594876,6.27178918460871,8.50160317236455,8.51967117752428,8.09586760938541,7.8570745271398,8.80501729851842,8.56775118617067,3.44951149795498,9.19194988217958,8.11442561442416,8.28197691732674,9.50628835895914,7.99717962473895,7.99053965780333,4.08996094045961,9.01181063148764,8.48430652538706,9.47818340742436,8.83756694066959,9.00689403124822,9.18679226987433,8.52427022632332,3.91750052016295,8.52001277545885,13.0202137696996,8.4826675434452,8.89584616367766,9.86692519158301,8.21298939269105,8.11887067708608,5.04484152138039,1.74155440250757,8.12435967826903,9.49758050185697,10.3026963709918,10.711444233299,4.12775103248424,9.21390841874446,5.97808133684451,10.1793952360796,5.51569390060436,9.95825511145501,9.68265028550692,3.52955697313721,12.2615248466226,12.7552903798658,13.3630364038464,4.29140141120847,9.13342319779753,4.84121966256061,10.5400075381083,9.29358001309951,12.6176591650715,12.58301128592,14.4118477635027,10.6769626086554,10.4141219659969,10.1358909782461,13.2887004578138,13.6304251711462,3.7700334452535,8.59140561524689,12.2828959130153,10.0976081209209,9.49006391359446,10.9632387379605,3.39860029149598,11.4776280698093,11.8188422052401,5.46757171055729,10.5434514843491,9.34033694110446,14.2575335190188,3.89780474024708,9.70949543874649,10.6623331847934,11.8417075133024,9.97475409262555,10.6122018704923,10.2102803206595,10.9734370470715,5.41771303022137,9.64774928639584,13.7642912839349,9.47346851084599,13.7781833265088,5.09875976517114,3.2531513886429,13.9354801182325,9.61215766423515,9.81050141527849,3.40141274990364,12.6579723111023,3.87460559791801,13.7891392268978,11.0971389781974,11.9677857773942,6.25554317781107,5.32210822704287,3.79139074967677,11.1385534517362,9.84711844428835,11.3035325753241,10.2176439271736,9.94605345826633,10.4278469717328,10.3991998046329,9.70405695917675,9.68029783257446,7.62920905070767,9.70918342953743,5.91587506798809,10.3148191014246,10.2441757107559,9.37997576525066,6.4705333637429,12.3083573046957,10.1736378427212,4.83792768782152,7.42502634638713,8.59699827356178,3.1111510082001,7.84390007222106,10.0908870795048,10.1233870913633,13.9083469969191,3.8585585598681,11.1415174555488,4.70352226149115,9.85021535844788,10.2481224863827,4.81351777667142,12.8425220587317,6.58785810512148
9.09719610248956,8.87187409554734,11.1833577582151,9.93903530167654,7.96677373417498,12.5178154480504,5.8325640508051,9.6887886162389,6.4213469910178,9.92903303268259,4.1844141604395,10.3987362735659,1e+08,6.34695113923409,10.8306252109987,3.54273661575945,7.24378379147847,4.56027425664286,10.4009372231584,5.76342628401742,4.9063593325065,9.15620372759975,6.09247644046904,10.3479307298616,8.97235480048337,5.86016804959272,4.42466004315486,10.8261414748196,7.64660725879897,4.47037433845987,6.07554268869079,5.62964452172985,6.2890432195092,3.87239311009244,3.95668878864574,6.09096337426712,9.28311467725319,8.07846449034729,6.20495362364472,6.77879567084414,7.34186389929421,5.18401630716947,6.81092160998355,3.6551623160156,4.15191312860333,6.46609684066919,5.36819013336207,3.50121595286991,5.72105167746691,4.5526183523758,5.53507534582166,4.67070872519621,5.978057342008,6.07077442012514,5.1308384260075,7.41004776999699,3.48493375885881,7.29123755920948,8.79992709624048,5.13618552809202,9.10011187987631,9.86129071143123,4.23679547748234,6.69160502385244,6.74055983142964,6.94865912010237,8.2632814488887,6.67179917899385,6.27726589663907,6.07285910329206,6.00472079292488,4.7381969846041,7.52455076863249,11.1878231533538,4.74509149132111,4.77061191230167,4.33043673943227,3.32000385622065,6.37564992153106,7.46042803278335,7.68064594917143,5.91581360761876,4.3948599263353,5.03584436637758,4.17666371515147,7.27024725139903,4.8730571407701,8.34161078978404,8.08872673638712,3.5679467551287,5.3636012580608,6.71704200414089,5.67039449301207,4.26378217534165,4.34968083758031,6.99134470899136,7.51220067213873,9.77130842936699,4.98557896970968,4.68044647082434,8.11160677487106,7.10976847920277,9.94256446394464,6.83171378078932,11.2916960655638,7.71410915164097,8.69867147210763,6.01618172647878,7.71785012830753,11.167086294924,6.99164333362459,6.39590435431389,8.81209749914008,10.5128083820843,13.2203286251362,9.65540638306269,6.44932289725353,5.18996898322711,4.92347083345396,6.84090446751878,12.108852404442,7.41413818724672,6.13197105602626,7.43783412051265,9.05512114107746,6.88448274043523,9.38320098948495,6.27034793668599,7.97138996741323,6.88849026184446,6.81369086202294,7.27688772931515,11.6295540514956,7.57682989597817,6.39552021599342,9.41007489467131,6.15036081572734,5.85747445230334,11.23310828349,10.5883681369592,8.19902495479831,5.50783935948959,5.13146057452818,6.72402109617696,7.59060024154037,6.88403772093082,7.87965444603188,8.73331890925818,7.61641012829096,7.39852161229244,8.91371430130799,11.8167538553414,11.046368418899,10.9984747645513,7.46786391164934,7.7849125648532,7.70443422106612,11.0420730907201,5.5495012526722,11.9678401746431,11.4207965780039,7.52825085212273,7.18390274458691,9.99081843306293,12.862674128331,10.9097909767473,7.15770859578864,6.07975146455746,9.18525033949755,7.74548444739505,9.37443438929561,7.74834109510477,6.35591432672712,8.91903810707965,6.62828494477547,8.54304057066859,6.67174381441872,8.67322185146165,7.74281577958718,8.08141568576957,8.6951934402433,8.02140670585029,5.39800310151626,7.89469461769857,12.3707586328028,7.12446954851404,7.63820783000447,10.0837842813596,7.83960770373873,6.7192266678909,5.91804125683921,11.5493534423114,11.4985173784256,8.87389487467302,9.91206689798007,8.25271137972388,8.39917060489836,12.7113471780558,6.33032435409473,9.38390759736669
9.150116407702,9.32598141561253,10.3354102113332,8.99560190334037,7.13334788008325,10.7664510887057,7.21983298269162,9.09610015580495,5.57480133035993,10.6489455785277,6.19470143559254,9.93961399885344,6.34695113923409,1e+08,10.1288188732063,3.97622377891078,11.4342482092806,5.62944920423967,10.2403499955806,2.47906199599814,9.55130557299863,9.61231747724224,6.46303479258319,9.74675114176582,8.5048933829426,5.72797777431618,3.43685196017791,10.0588841659348,11.104811637486,5.107896045923,7.16935948537314,8.04570455373429,4.96019250119956,6.1789195316634,5.9754949097883,3.3346268725781,9.05643668352039,8.16882556053902,10.7948055303641,4.31203334876875,3.59112176655196,4.35049432984966,4.60985337964227,9.16439673439973,6.41038128087398,5.8171072397524,4.72543908858082,7.67198599260016,4.20993193698272,7.25124628330107,5.28589067635784,5.63405120806376,4.30092579363632,3.14344237754997,5.22999451557966,5.27955686959792,6.42664528410485,4.75786735895475,9.9323619511129,5.2695411412605,8.33275299131118,10.3133570599536,5.74435411142673,5.16665334451931,4.8256118471998,4.37802167085219,7.36909598971544,3.520651513718,4.51119493768908,5.47014421236742,4.90606458850764,5.29753692699917,4.81546079543094,9.3184536474977,5.56945155966812,6.95135701982016,6.49712243771117,3.9878919558459,4.82454661298222,4.79700394137965,8.90041019715288,4.51363776407894,6.18903463203123,5.50101105497934,5.57566849820652,4.69794226701933,4.8423581152322,5.34177260191869,8.76896741058416,4.36105020701315,8.0088150560197,4.45447603642072,4.15547829985205,3.18811101992345,7.19793010843808,5.54021099915933,7.27061901526134,9.71578523180248,6.73721989340175,6.22211145287986,7.26212469981753,7.3806028115309,10.4805247981415,6.54155789924629,11.236691713054,7.88277312262204,9.80667283274472,6.58351496193301,5.81337595498561,9.90741142139023,5.49281306540196,10.4074073843437,13.6534431975235,10.3836483981344,9.75628376984532,9.83430596578762,7.31605039030534,7.33524986620924,8.07033489850011,7.88858925612598,13.6549744472674,6.38636314875772,8.0228756795527,7.23433304363086,9.6792262581518,9.89064068226138,9.54069376851431,7.66421516918519,5.9685643060118,7.6528713795062,7.87453057381072,7.6803352907161,10.5468942958872,5.57041902164731,9.97932572054681,8.46213391144887,8.18224852555846,6.51608890609263,12.799486574203,9.52894224119311,7.4607386318291,10.4134141478446,6.33158947101439,6.1945613342894,7.41464682326238,7.18319968145152,7.60328214373778,9.84574900887161,7.19357095707598,8.61997018799128,7.11793283639506,12.1757209931742,10.1575618180973,9.98400212822976,11.2869367042562,6.34169057694279,6.85359538251561,10.2935060787212,10.6524249908485,10.6013275297187,13.9115745557871,8.05363645067917,8.97857035125047,9.18699660052822,11.5290451012171,10.0784181693607,7.61811173108427,8.17936158460584,7.48595737057032,7.35340655664716,7.36892790936686,7.12529013138563,5.55904726437148,5.68982824481319,8.02562691988929,6.60920056616725,5.8205525098744,9.21800516037989,7.4814490365701,7.32730551362297,6.92353560862815,8.6233377759155,9.62779040085078,7.86820140171007,10.183515634792,8.05745940005362,5.95979678542464,9.99464853261169,8.15553739719807,7.60782300240215,4.81827682400153,13.6220000514303,9.66928959030657,7.84732882581813,9.81625761368189,6.31345544689624,5.7223321568935,10.5320379391148,6.76889407576975,8.82280731890939
5.22939408515572,5.53864438224075,2.65110537864946,5.01764987404931,7.36526040663106,5.41017061017824,6.90319960366331,4.63961041029028,12.6626818823705,2.96778268289205,11.1386263209712,4.80284981418304,10.8306252109987,10.1288188732063,1e+08,10.2317391182618,9.2048130049131,10.9294717688651,4.59889467556798,10.1049329955687,10.9958285115238,7.87257059623545,8.37259934179579,4.72514007709309,4.80148128137378,9.82640586594126,9.0534040575032,4.04360361065312,8.09538118582929,11.9409516551394,8.64035691009065,12.0345236061134,9.56711448155889,9.45487168458549,10.2215320188055,9.46635321396315,7.32872073594631,6.98122229675454,10.6988916445644,10.2166498417225,9.74984979143704,10.0174165644558,9.93034175106599,11.0261111126762,8.89998652622494,9.27274455697906,9.54743549182388,11.0298822032297,8.75589377108194,9.95376668652188,9.62189632451081,10.1988640921849,10.1240439634084,9.7508468454386,9.59191343009538,9.3695831195859,10.6507443035827,9.27971842757176,5.41967714547108,9.57701216837708,6.18124283378097,7.05613881867749,9.42500416592427,9.81735174208415,9.34736762536235,8.51906366316998,8.12083987960702,9.29782576446713,9.5505012559806,9.20066982863997,9.04336759563012,9.7015030948978,9.61273066970879,5.75989998826047,10.0488427917229,9.49582631732534,9.34530872920881,9.9534385830725,9.14703874596528,9.05763087356261,6.82996587766461,9.84857776512682,9.65060151849287,10.3081924658426,9.41856439108083,9.90228177574519,9.97122324820268,9.57641842872924,6.16806974828144,9.14872547131081,11.5734109140226,9.32592323809905,9.71723014190606,9.48110507188479,9.36099087189371,9.40599646585528,7.55613835766871,5.32607160883942,9.15376890418768,10.595448766116,11.0224992538796,11.3221658322749,4.98580529496184,9.99127202657008,5.18292104399006,11.0758535412599,6.65208676758885,10.5790018228847,10.4842953652875,5.64099648311885,12.5401092178247,12.0558922923899,13.7874407619127,5.75156999228035,8.30798677510711,6.85861196892388,11.3626877783738,10.1045391509569,12.7454098596394,11.7534550092514,14.3044220478644,11.292221121462,11.2417491571765,10.9640751412007,12.1590275039427,12.8660713003859,6.38309173616549,9.49330672199898,11.9295865364151,11.0844766117369,10.5160938523586,11.6796147985981,5.47673214845888,11.4864754023207,10.5350396374695,7.655997808571,11.3797755339066,10.2630748790174,14.2087652625668,6.1204274943304,10.7041109155637,11.2119944118428,12.0601081799581,10.6513753781492,11.4510534166262,10.9048636941197,11.7395296730041,6.9869099016952,10.3877694683747,12.2311201225996,10.4491963080708,12.8612888843122,8.3225378013286,5.02212127728448,13.5939238905739,10.5633166340867,10.6652770466659,5.33747067100511,12.5949140494541,5.68515317239334,13.0340417395729,11.8836244211726,12.5677367996439,5.66095528302432,6.42226086033091,5.5846457578249,11.8681837139806,10.5316294270968,12.2085580230812,11.0699171684978,10.812555343284,11.2298286794121,10.9206014981312,10.4281576388699,10.6814622169921,8.76088498037487,10.3847112481565,8.27713079604321,11.1372039038153,11.2871878926908,10.3561445510117,8.02001260111781,11.5261618744753,11.0234566196385,6.1368910881756,8.99135606246778,9.92017611119314,5.04522127940702,9.0187385072213,11.0719213105593,10.6131372362066,13.0332882422192,5.73582017174613,12.0004054583848,7.45565331252909,10.5616257569923,11.0272269806675,6.16720257200017,12.8170026164023,8.52572614987231
9.1571686995704,9.31523755498848,10.829398850559,9.36756917717509,8.11183280230093,11.3757238025587,6.10484452832795,9.34013730254041,4.31516446374303,9.67544677888796,3.91469826212345,10.080729757107,3.54273661575945,3.97622377891078,10.2317391182618,1e+08,9.65379589363215,3.86822729402701,10.1750907156213,2.62288832132323,6.48467268973051,9.28815596582809,6.81750656567098,10.0267649293083,8.69348278609695,4.05479746346228,3.5510712862534,9.97928991053696,9.69688387984029,3.18854417353123,6.99195235010774,6.52110493635025,6.39898186546158,5.42737668685955,5.56246606730356,5.29393385586934,9.81325094616211,8.55420300520836,8.057742061553,6.51468695090208,6.40161110210868,5.44495340795479,6.69717067088521,6.57499174560164,5.38496221657275,7.00714177940118,5.72219660182786,4.7493081295106,5.53248526570894,6.59052284633118,6.1802795606775,5.82722952430934,5.97272014100266,5.28528493338412,5.80163965148056,7.34292004576932,4.12159204748096,6.89563467009079,9.14656444949148,5.84154240476185,8.98654499804455,10.1058552163186,5.41985499882822,6.89741894218954,6.66606855414305,6.41691453144872,8.65558127875812,5.81782057887665,6.14627375189691,6.43610932866392,6.04796764637663,5.57950217379011,7.1903169154465,10.4897960809165,5.79545894570998,6.41304266607875,5.87761093646153,3.58376962249155,6.32466260891723,6.98855823527285,8.32353514335316,6.00844133972734,5.82997227850242,6.08572856221047,5.16628180429053,7.01034593399498,5.51034127623691,7.94034264858133,8.45154793712137,3.64531249987907,5.85173553479751,6.45154644985787,5.62015026276884,3.16187816540556,6.24613552611311,7.14620106167313,7.66199981006275,9.76328569726798,6.39202365427923,6.16301305187868,8.28766672353486,7.5298514888531,9.86401846061091,7.11178824715255,11.0222818645804,8.31468052269588,9.16587380768024,6.54310452106731,7.28681645487616,10.5285052471192,5.53761945212116,7.84594174687393,11.5543103000873,10.0136028483083,10.9442844577719,9.96552643977019,7.3864369151181,6.41619050264721,5.74701985816105,6.73889307093331,12.2085663670966,7.4348114008139,7.2897571510078,7.94397965178959,8.65706618732088,7.76171130961807,9.48398148045007,7.04706149724514,6.76410752291973,7.84205450740322,7.87930410673444,7.83267114086022,11.0786534776613,6.25638878045123,7.66744639438071,9.06707489116105,7.45367013656009,6.35025682327223,11.2421614633739,10.1417245545169,8.47204520932372,7.96840138080345,4.94192456042908,6.81921679132835,8.03397169478015,7.35843519101227,8.23236404560338,9.22141293000986,7.9786033422651,7.16499093033456,8.73377286571233,11.1742569517144,10.8606826547305,10.4754111098245,8.82137607293677,7.6049183551467,7.88353824108808,10.4207124145797,8.06536038962948,11.3419178660378,11.9290772096846,8.33329193915479,8.64808219036313,9.65363745917225,11.8689566241452,10.2000395579325,7.8805340825157,7.29503088554182,9.12698043811058,8.0701080870799,9.13731909748281,7.96876265680637,6.01999318935837,8.02467648214,7.88240392361248,8.00368868129449,6.61263984758123,9.21636089800483,8.15860970726393,8.40912017658319,8.53995565005632,8.71717363792602,6.88440062298055,8.4774157286483,11.0107887820965,8.00835237329092,7.21646331875028,9.82838962386935,8.58639935955664,7.59715227250964,5.3493823262908,11.8137891807212,10.4512905695786,9.06307300413011,9.86451075417453,7.94803923249008,7.73209561995208,11.562999043716,5.78653453837163,9.42124583578929
7.14343604272791,6.42129567788503,8.9254495044496,8.85805875923585,7.61729237046112,11.5125741403233,6.35017170796488,8.01672983357592,12.6205896950039,8.03772173942517,9.86018896592634,8.49802946296893,7.24378379147847,11.4342482092806,9.2048130049131,9.65379589363215,1e+08,10.2414239030781,8.32492648474081,11.2956794725936,7.35626262705909,7.76294475623055,6.98508765994841,8.6213174672654,7.69185591845132,10.6397894940319,9.0231184723625,9.45359829861505,1.77918858619941,10.7723513058814,6.0609640637027,9.87414778083228,8.58433203595561,6.05915090590063,6.79019352696467,9.57137548747485,7.27796361553398,6.63837199473278,6.9875787521614,9.80906826585275,10.5056379152814,8.54814727816068,9.49365257643298,5.61585703656004,5.81258726636821,7.8873621645857,8.12384396110116,8.37023429167125,8.50431937861734,5.74301560645099,7.84465413277902,7.40626717175841,9.14747766395265,9.76314463379899,7.56429559458938,9.25688172226577,8.70322678663494,9.46077520111673,5.99199967478952,7.55893853709696,7.83947398888051,7.73658590844397,6.6100598774205,8.89101799183915,8.96042785943974,9.23331766738072,7.91732239794072,9.83823618167007,8.89311867778901,7.81198557591428,8.21045829542735,7.3755785576181,9.8046516193633,10.4780003665752,7.38443418716563,5.69552935516876,5.87220726524742,8.37541093786972,8.57430451292625,9.50020183199773,5.62902091042303,8.77754133902059,6.35842099233165,7.83632890617208,6.77938259077834,9.80185559736522,7.99414110372287,10.2782184703004,6.07150744377199,7.7534900400702,9.84776619556947,9.17437890719775,8.77872992446066,9.45696787291627,5.08677966177757,8.64614698418886,7.11441253087818,7.78055153357927,5.80983384044436,7.1835417620811,10.0717750656597,9.55553447808797,7.68525103664979,8.97695874593062,9.31786846799625,9.22873648451567,6.55203433198286,8.77338537034313,10.37875839992,9.99396741890527,12.3950497017095,8.54524208347332,6.75405420839816,9.06146774148053,14.4561390230688,7.48058894988703,8.80222672259436,7.01697568776749,9.79063720951862,10.8551112422175,12.9171922962835,10.301283662698,8.10114381922217,9.3205107610632,12.1618271922526,10.3057877055906,7.544631166865,7.1596030247616,12.536857011556,8.56040869560915,7.80772873225534,9.6557654000531,9.99863967343852,12.0900098563126,7.88509524923242,9.09821923018051,8.05702637662197,8.3448976123718,12.6606237055816,9.40324079961443,9.691415421377,4.75294433048241,10.3716865732467,9.48335675475181,9.68736566329351,9.12352617157201,10.1423479032783,6.58006944618149,9.23169618816787,11.5721438476186,10.5453868339308,13.4312146437608,10.0540177860626,9.47113723486286,9.79775471509621,10.0650299527654,9.70372930422729,9.63008843553776,7.17125589411234,10.4862499526961,11.2003095959855,9.51219488951854,8.95753698737296,9.25406757552592,11.6889270236242,9.86641937974794,9.54559814495736,7.32309040204474,11.661772780441,9.69397990100441,11.0681359878829,10.0108209807706,10.1113540899591,11.5653766825624,7.62584244317893,9.90970569371154,9.52770887553738,7.17620094097636,9.59331136095514,10.0394620015593,10.3222046383219,6.82795762620825,8.15066292003779,9.28504356416089,12.0000240692552,6.98919852759782,9.93875347052091,8.20944959655445,7.55862881065995,8.56710177254506,10.2082019595994,11.7577732455619,10.9034622322528,11.0039249943518,8.75203871589962,10.5912322922582,11.3713626016387,12.0329793797941,11.5973462845614,8.92759917696044
10.8373154095064,10.7760590622674,11.8593065443926,11.0287577016031,9.73273044842617,13.0320455523876,7.14260525054415,11.0651412935175,3.96829902856798,10.2818944201626,1.11695392738072,11.8182333676816,4.56027425664286,5.62944920423967,10.9294717688651,3.86822729402701,10.2414239030781,1e+08,11.7286347963023,4.58496255369104,5.66186521133462,11.4481142235704,7.57981976950432,11.5998228293186,10.283914715455,2.99403004743449,5.30736627991597,11.7825289650064,10.553437014023,3.22432847849806,8.91757059060821,3.85222641843746,7.65224703087924,6.78387462104453,6.54554914756077,6.85120613443799,11.1682341053676,10.3080506026368,6.79898805634752,7.50274468018994,7.6109827216133,6.53843221897259,7.72412589717339,6.66530460796763,7.0438251629483,8.0723248609713,6.9261196611597,3.9482603264221,7.19173185123215,7.59595774405372,7.191691783442,6.60694002224905,6.97761731796267,6.74879273823697,7.05874190512941,8.31220926130861,2.32371916172548,8.29706633609144,10.8356271234427,6.99920094771314,10.8165253230602,11.880517062979,6.71947603961568,7.97585977854748,7.98344856578133,7.87521712690611,10.0194691511824,7.21634426047618,7.51511572339683,7.86389089530381,7.6165140648911,6.90261133669652,8.33164073937072,11.8566186337327,6.87368596634497,7.78683688346613,7.32194908416636,5.22241346299159,7.79887088523141,8.34852455924112,10.2004806489789,7.25465165777337,7.1896033203135,6.92132457914097,6.53053480278854,7.95628854990932,6.61094516512739,8.95405968994372,10.4137653760896,5.79184202291182,3.38143794090394,7.65150702429691,6.89318024204093,4.23187423151745,7.55468300664605,8.31894676249866,9.72057747339656,11.3484805965872,7.78188209904958,6.92471885386646,9.19131638699143,8.36187050016407,11.3732389813062,8.35278725048108,12.1064521172276,9.13728084089722,10.5897201892957,7.61193483049706,8.39609167156703,12.0358968898578,6.10822690189085,7.17838349946778,11.2057892988272,11.6282528980223,12.5272116172751,11.6241202929808,7.99526635963648,7.57985076002324,5.67995137899755,6.02302652557545,11.5820205565167,8.24294005279942,8.25424690980418,8.81446859510482,7.79653761956104,6.68835261569731,11.2245019568302,8.66104353295432,6.3484882902007,8.64218095342184,8.86599798098908,8.50268012691624,12.6304493637514,7.11908109372901,7.04259818768502,10.9530750347994,8.24158053492348,7.70746740851845,10.4998725557701,11.7713006226916,9.4546673981132,8.88910689876802,5.61261966650942,7.83835305609809,8.84105905057119,8.41115976121192,8.99293937965793,10.7689699881214,8.9685336378269,5.55269058230921,9.77288157700184,10.2019088834706,12.5123000752219,11.8946322495532,8.10925245663158,8.81315803172808,8.89116451309966,12.1418419096922,7.60135279041107,12.7847932892368,11.1399385803422,8.7681853852113,8.625009185029,10.5128398672393,13.6310940355546,11.8551325396815,8.45260956230557,8.40479964057047,9.59819088048118,8.93906715957468,10.0605244422366,8.84782552966675,7.1032886578179,9.04642226256411,8.71489558663281,9.5980784154297,7.78245781091886,11.090577930548,9.08501915956758,9.22105440933349,9.6301047207327,10.1591731798083,6.27181951337626,9.40778133803807,12.669332707437,9.47555907470907,8.51863432477465,11.4897686211415,9.90052297567317,8.58290214906635,6.74025208764755,10.8613835091952,12.142158052743,9.57916751672136,11.6067493982429,8.9902369348692,8.65420933228747,13.097459236809,5.72608315420555,10.9914635859771
2.53070836637719,3.20900703261022,3.14659719345848,1.97507325386306,5.76205739190935,3.99542510222922,7.20612134090906,2.55503987471984,12.9078732337334,5.12134399716043,11.7305217985812,0.954286246153076,10.4009372231584,10.2403499955806,4.59889467556798,10.1750907156213,8.32492648474081,11.7286347963023,1e+08,10.1568043264786,11.7677305516188,4.27780871585286,7.39654517088466,1.25823012900639,2.74526379796761,10.9531662326939,9.28311258429622,2.33529584318963,6.9411419018028,11.9171815223875,7.05500998231338,12.9680835869189,9.02856553341514,8.66375128572478,9.53252257056808,9.02088426664197,5.41363872133636,5.00583831413826,11.5274768221092,9.69501108118378,9.37758441365648,9.50501197336325,9.27738238206179,10.7260353929502,8.30412231512572,8.61433038556709,8.96086338880847,11.7373768032941,8.27701646958031,9.47314672080361,9.13353847278742,9.77244163247548,9.53501843727872,9.26792909723937,9.01955060375253,8.71876807791887,11.26180875133,8.54456273579756,3.44165360685178,9.12670162510781,4.00107738772506,3.16002680127223,8.84063670797955,9.23646788253899,8.77968869149744,8.0812658309715,6.75895044800199,8.92415349725775,8.93572960299826,8.50479354144038,8.27156256099704,9.10331862773334,9.00994177501298,3.65822560972597,9.46401776680743,8.35092642624437,8.50922666094615,9.72311911470138,8.43576421805021,8.4766309484101,4.32028724860962,9.38426910559524,8.72176780484172,9.74171240061459,9.09216906575785,9.40570628789756,9.47414767953325,8.98348120669785,4.3669464049523,8.76157550893838,12.8267635057072,8.9026472511824,9.24495496955923,10.0365218842334,8.38158913070088,8.54539056239752,5.55729899900031,2.03160337889259,8.38639271946316,9.68702018153701,10.6248529123399,10.9260516070178,4.10764264900468,9.5157703098804,5.87122700931527,10.4291829233514,5.66220914432712,10.1870629760331,10.0508638308344,3.821848754977,12.3764192363018,12.5157927362987,13.080624081435,4.27603271298387,9.42322240089585,5.23213160776869,10.7387589562146,9.45962806956005,12.5331019969588,12.5159958454424,14.1103069173679,10.9798860340696,10.5537490627118,10.4334450204941,13.1133953222656,13.4203393506561,4.08096662649279,8.84323919629351,12.4000327604839,10.32652094111,9.73947782185834,11.155612768037,3.64407307067632,11.6637139326406,11.5870265526215,5.95424008802157,10.662213635047,9.58901975180254,13.9782276844894,4.26949726339271,10.0413423399282,10.6023554901246,11.9010218175803,10.2864976731526,10.8862127470801,10.462818910942,11.2304068681301,5.59104135666184,9.96548820093223,13.6260895563304,9.85940775004267,13.4876917088348,5.42897032349158,3.50369335236209,13.6929702839792,9.98885395209918,10.1468597325605,3.51909463092687,12.4381721354955,4.09593073008149,13.3862234694788,11.2876675400712,12.0647768799443,6.3783886069186,5.30479108129465,3.74937378212549,11.3515974426798,10.0044681191419,11.5833590854603,10.5057134526749,10.3330804951505,10.7097279024583,10.6573281201254,10.1191816933788,9.88532615785072,8.06298753150783,10.033132356132,6.29179185953518,10.608701650178,10.5489290438759,9.79363079885396,6.8164414273244,12.0926178360848,10.466517852435,4.98532062360238,7.69248667332357,8.92816365486243,3.27630177143285,8.19486285225908,10.3114799804319,10.3752255234759,13.5127709110825,4.14129158532968,11.4050260657261,4.90756437553897,10.2236884903183,10.613095033311,4.99903719700119,12.8636823905856,6.95180124771641
9.39094740884534,9.70322280530163,10.6108613883926,9.06295979931943,8.1802969522642,10.6238845292694,7.25141582901053,9.34502958964037,3.81852400792395,10.1103707752997,4.95069597298853,10.0069517577383,5.76342628401742,2.47906199599814,10.1049329955687,2.62288832132323,11.2956794725936,4.58496255369104,10.1568043264786,1e+08,8.4918935632758,9.50973175027325,7.24779698495382,9.86626415140309,8.71262972124067,4.26141775181578,4.19405375441982,9.80172360068415,11.1077618362496,3.72234269613604,7.88178790324811,7.47293104424589,6.52631805621082,6.74737251713902,6.7180631894182,5.02459256905462,9.92393394984357,8.94472199157662,9.81476017915622,6.09229969361457,5.5739309417227,5.72482179246059,6.34840934530922,8.64711502708975,6.86112851111578,7.20956976113266,6.09534907632289,6.75696625599978,5.71953932571237,8.00758623592892,6.6421554711642,6.67342050878735,5.86978750859794,4.91428154082973,6.43999958425556,6.95499044523368,5.56399695009338,6.5016212701383,9.79610595688751,6.49694144629644,8.97630215416847,10.2484721950395,6.54919181944098,6.86410449002579,6.56016853261224,6.11114251265362,8.68927440788915,5.3416630675295,6.13243622755781,6.82944788597226,6.29121812848122,6.39499996381799,6.6433374396313,9.68700324367637,6.62716890379985,7.62619370538819,7.17183953342565,4.70443056766989,6.37759987493393,6.5538705339286,9.0534013559798,6.12393985515121,6.95717322580602,6.74905764802648,6.34466972075177,6.51557794127117,6.08304673888888,7.20888089818211,9.09971623145504,4.91099142372553,7.10603773843942,6.1937657678786,5.67274953726771,3.80118822374168,7.6685528657002,7.08178019335521,7.94517258341187,9.79956662688502,7.53895138175232,7.01530949281232,8.39738636948666,8.05735529505249,10.2855596844154,7.5466316123229,11.1728655563048,8.72950409903732,9.87587293285938,7.3009804609352,7.08072031617807,10.0888821733618,5.09249877193977,9.52114225741946,13.1741219067961,10.0695078091591,9.61748838977856,10.3125212016539,8.06604767404021,7.7107147436345,7.17965470419459,7.4524832985481,12.442545413203,7.52414692573316,8.37672745404925,8.30343854691284,8.9564559880813,9.01744487215157,9.77421555829545,8.15954770727206,6.10593453062834,8.48548481262145,8.67516547482407,8.32358917000578,10.7140227832988,5.83359709200944,9.34610064185966,8.97546175213768,8.52994485321652,7.16475898435063,11.5011383874031,9.88720895198822,8.58311324979082,10.0330412589112,5.87591108301043,7.15557515298528,8.36155639020486,7.96158692117231,8.48230973916033,9.91686501501911,8.30030410529641,7.92155286735358,8.43692677732795,11.0255229018074,10.4640425259816,10.1857758607803,10.2533607374916,7.56191261340934,8.02581340503995,10.2356982120988,9.98273129971427,10.834208082075,12.6715109879536,8.80014207732667,9.48005251472603,9.61617517615506,11.3602728552664,9.95861343172744,8.39999114824279,8.5409394582226,8.67043392771931,8.3108146023483,8.71601997711145,8.14398134949943,6.28493359625664,7.21522349245599,8.75843217997273,7.75601154382929,6.8949130491777,9.75675721590932,8.47994677197348,8.45045611006767,8.30323371065191,9.32824802950973,8.74344942011555,8.87528660985599,10.1235657884332,8.76447573241383,6.98878877375026,9.98952561436901,9.1593189928973,8.32538665475472,5.58896326434351,12.379856016751,9.7839612023687,8.89553740370889,9.9118294564739,7.70947831932838,7.13050834999761,10.6657337583948,6.20618334621023,9.45029855822107
10.9797297548502,10.69196482782,12.1041418088518,11.8165752584609,10.7255507870693,13.6854512332619,6.72498550047372,11.3846970050155,7.98621131409955,9.32506433232643,4.95485198198729,12.0108149528695,4.9063593325065,9.55130557299863,10.9958285115238,6.48467268973051,7.35626262705909,5.66186521133462,11.7677305516188,8.4918935632758,1e+08,11.5841197691929,9.01315677676329,12.0693242993483,10.8489450477941,5.7951261337331,7.86582039501354,11.8753217813782,8.24148940670331,6.51861347122097,8.97240382219317,5.08011116626776,9.42283763210684,7.02375890043644,7.23971075217292,9.58437136090265,11.4577646443379,10.5370551825961,2.63700998322306,10.0943780133081,10.6383973436383,8.62150998252176,10.1740304996374,4.31258385392031,6.90276695857888,9.42175269514891,8.78586591888795,2.80851428582323,9.21339949945757,7.39025299449126,8.66318930083328,7.76761778966747,9.38155537902125,9.61382418481849,8.34707478622163,10.5062573135646,3.97857556621564,10.5840612773543,10.065225522394,8.24090992595563,11.3705309175779,11.955665208339,7.33695471278433,9.94891671014576,10.0794158060278,10.1896416021635,11.0952805135903,10.0036130677495,9.62219783033032,9.18176759300373,9.3281911409536,8.02221835536107,10.7567205949462,13.2275118123039,7.92341082028396,7.85422106440148,7.36131948165962,7.30679825447274,9.71065996732677,10.5931213326496,9.60451943952642,9.22651801158581,7.64321251807912,8.4020207619811,7.03274067724969,10.4559422238131,8.22883850918011,11.4747485591903,9.92839997124195,7.21601366731216,3.85119755359958,9.87818762995507,8.98531855632809,7.20307040764249,7.07651184736481,10.1821674614831,10.1051987763243,11.6494352523179,7.7228720444837,7.84931787426155,10.7203834020724,9.4798253983792,10.8018826876934,9.75755830796354,11.7246569740397,10.1412311952871,9.99322517231521,8.81430079175028,10.6258963042552,12.8974464509855,9.53556206574557,5.05444687690554,7.856899130189,11.5773250618871,14.1567222710282,11.4103640643953,9.15093440957286,7.6918381215232,6.2193291105355,7.55286285820944,10.9546838485499,10.2416696619643,8.39887746105519,10.13142037378,8.7628166420221,6.24721911012083,11.2086548267562,8.49461293409403,10.0321074650662,9.5543124332757,9.33089059605609,9.65367962099131,13.1622428023504,10.0459785103544,4.73397722357183,11.758740056075,8.42701267777164,8.73238028550791,10.1834151983307,12.4385154032288,10.8765448266814,5.60149255733287,7.53384723967425,9.62423029812908,10.1346027915253,9.40957781922626,10.3732059993564,10.2076820198413,10.24249258872,6.66594411880289,11.6627539654802,10.5141864415824,13.5514472307089,12.5133390454511,6.38387992812824,10.6906143942479,10.4992547523246,12.4039963367716,5.0729148972072,13.5103643464009,8.95247593657662,9.90048426928382,9.06931032739726,11.2219393582147,13.833774699507,12.2455822055436,9.64374172621808,8.04978604196024,11.9739275688957,10.3604333989412,12.0829232860953,10.4105884267438,9.30179196952652,11.8360937545581,9.09222103006746,11.3076530776034,9.63920807174091,10.8515478238614,10.3021259249949,10.9299148568467,11.4962671590103,10.2818602056134,4.05047236099528,10.3555617346391,13.7734686663589,9.75379297731078,10.6469370957347,11.4278563885855,10.2616390353281,9.32773089464056,9.25948138730427,9.1759530050506,13.1937233509119,11.487986760643,12.0814590522111,11.0927755396369,11.3973656253141,14.2749795416484,8.19026384081649,11.6066929648185
3.70781624577568,4.32812832907817,6.29658694285253,3.88098886398545,5.34241884618376,6.43647882042691,7.94669937178438,4.16238951561866,12.0932301647556,8.13747392556774,11.3400343342345,3.93997846021928,9.15620372759975,9.61231747724224,7.87257059623545,9.28815596582809,7.76294475623055,11.4481142235704,4.27780871585286,9.50973175027325,11.5841197691929,1e+08,6.77886277433509,4.12147243825766,4.03199248559989,11.2434642954033,8.65172689660131,5.27805907217752,6.7866596327566,10.9523166540822,5.77006144807111,12.7620301233824,8.14960024840096,7.55725060511569,8.32083142181807,8.20589325091024,5.24849095730794,4.66709435854495,11.8390522757799,8.73630210593426,8.64882499003703,8.44652407686376,8.35810063753703,9.86869625236784,7.34032692175334,7.66730269767457,7.97828378905332,11.464912200602,7.57815387891014,8.26929407562415,8.23164442623098,8.63455667868775,8.50172386107976,8.4189213513274,7.95609510206984,7.9466214020706,10.9517226846091,7.70634659350956,3.72716817748696,8.15560004281974,4.1470645239748,1.74630570665198,7.84566732365605,8.26742474334953,7.865174105297,7.63923532122637,6.31657970665625,8.31222994709113,7.9955963190854,7.53664700563311,7.39601472730253,8.01895925141437,8.16391550377478,5.40685207776227,8.35087043035381,7.10456579422358,7.42407750478395,8.71907516705534,7.54422588692021,7.78122692728708,3.99105982754227,8.36657253708498,7.52714584780407,8.67453786961059,8.09926931745912,8.56273286606589,8.41012518623893,8.32576369696922,4.28649604493266,7.93393520747182,12.7865652016134,8.10235483034563,8.22377158999061,9.71851550937934,7.25085514710536,7.61424207105123,4.55356265370473,3.10675226886837,7.3262798601815,8.36550502143821,9.80802934106669,10.0515475591272,5.66345327466736,8.79579313899066,7.88764522536248,9.52748778268556,5.88396906048354,9.33918002888272,9.35529025255526,5.47208729253601,11.4547186234029,12.1477411863842,11.9444682820526,5.72421994726348,10.3444645292816,5.44131272660415,9.71096370834613,8.56576973639373,11.5290135005832,12.3162784805165,13.596670774451,10.0980328066574,9.49457723578448,9.51832562905914,13.3175381774684,13.0211284780747,4.62795331609169,8.06487595828822,11.966464848421,9.29962223429451,8.76211127661092,10.1895794352553,5.56244509978797,11.0892022965464,11.8484360158164,5.6575414464783,9.58228201952032,8.67664868161326,13.3795258719867,5.51445102998505,9.21322902246471,9.44938198787329,10.933042935363,9.33458955868316,9.91296696908946,9.57615323783597,10.2331686928972,5.48515293906981,9.23788543100772,13.7561536127041,9.24985019493324,13.894675565053,4.62195666881507,5.60752893962315,12.8614509752775,9.14530645672113,9.32988582572735,5.5265457388649,11.5339568459629,6.0641124149429,13.5308055606356,10.2607722603875,10.9546748535212,8.00864895971076,7.35068579635533,6.0137889446596,10.2918777664709,9.10475779966399,10.681710727839,9.57924516681578,9.67360659864187,9.85377298092345,9.78667573710472,9.64340491476968,8.92367893924753,7.84895648584794,9.23603503425087,5.60875993367857,9.68746057086423,9.57215239759039,9.10539012387942,6.32477175687033,11.8249971801984,9.56889538852715,7.01703301472728,6.94722245892795,8.36988219505485,5.02890219322487,7.66039306433588,9.28133724653764,9.56780399663757,13.7919948496695,6.0300012502237,10.4753904478256,4.62617318850705,9.61960831002022,9.90896998750032,6.94935929615596,12.0211013331365,6.6960203087559
5.45012596810941,4.98965572502344,7.62978723805388,6.41871874792454,3.22324564692341,9.96188688314598,4.6555502195165,6.05231860050199,9.69484154526245,8.59808368122687,7.81458307612175,7.16070230826911,6.09247644046904,6.46303479258319,8.37259934179579,6.81750656567098,6.98508765994841,7.57981976950432,7.39654517088466,7.24779698495382,9.01315677676329,6.77886277433509,1e+08,6.81762746383028,5.24282059855885,8.32865878932434,5.28065412726528,8.42708210775206,6.50544985129874,8.13802935469018,3.34105259340752,8.9442611290187,3.56975873661025,3.4357632826443,3.83702736818122,3.77463730361894,4.71055833997215,3.97548307855441,9.52785947441507,4.48552978226475,4.58886058140544,3.7780091528221,4.08574613874063,7.57960716797492,3.71731546703002,3.42262967952768,3.02667817878956,8.3531378029157,3.46441167029935,4.56585139840783,3.37702766738953,3.79481961986355,3.95917329324712,4.05835352474425,3.36751788615615,3.82986161297831,7.34359013668888,3.73125017792878,6.46530979030181,3.50036121698162,4.90368781806685,7.02579273500161,3.42228015655799,3.81048390007512,3.51672189788692,3.61447093362662,3.48237126475656,3.88328351871101,3.43378469765163,3.07241116439747,2.83149730163939,3.52344790629912,4.39443056470881,7.6661633930171,3.71042809490788,3.09400432479015,3.55401261341187,4.8424647026134,3.07196687324056,3.85310242398816,4.9284103706634,4.07538567273056,3.34548102730062,3.76940187421333,3.99775704272838,4.42972841034039,3.81241043554024,4.74380561563599,5.13468967571726,4.27554988267836,9.28667955810215,3.84723542559463,4.06918934165546,5.70265999418255,3.70675460694689,3.08075422469723,4.14449444329136,6.42512177643515,3.6756918787574,3.92651282038647,6.58357927609503,6.8425559640884,7.73103515435072,5.50504666782538,9.36272230822036,6.34138330180966,6.32738059628997,5.78792309560803,5.64716516346466,7.65541956679692,8.70387672604832,9.91294992878121,10.9957042932478,8.24567988068856,11.9287912639598,6.38352197623887,5.76468524932553,5.05032627619442,8.83166246179215,9.18037042120127,13.3637840392184,6.36650143347712,6.59459967448764,5.91088361839412,11.0520855792305,10.4673916289762,6.09422524107536,5.60401955159161,8.45412319339571,5.68634183351708,5.33043226020777,6.95424185924981,8.32462408623494,8.47851098255621,9.23224156782119,6.2063470440607,6.55985419855344,5.18295915382379,12.6224357061524,7.04833732050185,6.07015750006375,8.01228096865859,7.97826658420255,5.57006746536326,6.42485161200824,6.36860450331606,7.07971001250118,6.3375855319407,5.83692283808043,10.4380747780542,6.27588005619643,12.6008659172239,7.66372648528513,7.3902974992745,11.147657342832,5.76924276449423,5.84415478577072,8.35229052233032,9.26668263050841,8.52603971430157,12.9575444690164,6.73489819732522,7.31453458435005,7.13547500426799,10.8511741328487,8.34796420090924,6.70198673477852,6.31339139713104,7.45227621443231,6.28292100510835,6.88041916880782,6.51432605119335,6.24944537675481,6.31551152808536,5.32426782605641,5.66385089488187,5.41258934082006,5.84042490657199,6.45684404240517,6.19835151260516,5.94218596888624,4.7274920538568,9.23351188834504,6.46594763290865,9.62959868154223,4.68824863042687,4.87524051355616,7.21389648140406,5.04780621798446,6.01710401755212,6.30202231009222,12.9218060857579,8.37642441209139,7.34119133884903,7.1813699463201,6.20623966030176,6.35958335734168,9.69335568071624,9.03363752608026,6.20446288478899
2.00257921612399,2.84381122721084,2.9062987642045,1.14143139286521,5.06921342532557,4.22835523955748,7.17630765459847,1.90118056094664,12.8133992468985,5.69774996019394,11.7007114572237,0.856744253827897,10.3479307298616,9.74675114176582,4.72514007709309,10.0267649293083,8.6213174672654,11.5998228293186,1.25823012900639,9.86626415140309,12.0693242993483,4.12147243825766,6.81762746383028,1e+08,2.0012473717034,10.9810243654388,8.87824806078813,2.76533847651836,7.22992026923607,11.8368896125024,6.70157231970053,13.0319435511324,8.48722303559031,8.41966989615961,9.25594910558162,8.38900745322493,4.84459880293557,4.4817470243299,11.9654771803343,9.10744700576035,8.68278066965106,9.03470047034698,8.67584437868833,10.9621287217134,8.0779760059913,8.08696090620317,8.4459708223463,11.8830997558655,7.70211172304534,9.23636633741793,8.67291908190439,9.40417054310992,9.00816894236546,8.66660384162285,8.59315574880322,8.07082990404892,11.3001489532285,7.85068639526646,3.5831924750913,8.7113068125965,3.23993528281704,3.10495428156221,8.54390462729496,8.64107278650155,8.11423815712046,7.40278336946792,6.07433801320822,8.25954574106624,8.34132689799859,7.98128373085072,7.69690930759438,8.72119196953203,8.34371022784107,3.11149380443649,9.10056346857145,8.06573646244737,8.26714441818708,9.37757501258676,7.81361384938481,7.78140703351556,4.27772653006044,8.87453090139727,8.43404980955509,9.33027540152745,8.81854919696531,8.78459804014093,9.06451999557582,8.25795965338577,4.12036490307841,8.44574815822533,12.9350661139313,8.29054141384192,8.75900585288331,9.69852089988946,8.21944982177189,7.90878514941931,5.12635334360941,1.4946523051215,8.13377058267327,9.39645382301753,10.1730900916073,10.6325111655086,4.30178114057401,9.07609394599842,6.09732459847384,10.0748461574538,5.55521530417702,9.8492479274523,9.49651589683937,3.32005247423505,12.1052347331426,12.7876660535319,13.4940073031027,4.44552799688828,9.25220775501811,4.92664082271987,10.3978766213409,9.24462117411596,12.5758300402735,12.4657583450447,14.4727638763986,10.5146799455981,10.3985669189406,10.0033425467903,13.219774342913,13.5985494559715,3.83438564216265,8.6436949807989,12.0132960734031,9.97853378854696,9.40619276384188,10.8681624984321,3.38454483467303,11.3297524980797,11.8439535181751,5.41401593297006,10.5006563404566,9.25764222887919,14.2807724936514,3.82474597800742,9.56827091202786,10.8584429934428,11.7535847758546,9.80841845613038,10.5040862761263,10.1399089582169,10.8695487405102,5.49190081728192,9.51918561238969,13.6729658217155,9.29294508133833,13.7567717928903,4.92212958503758,3.07643885568598,13.9835747799903,9.46347715450494,9.65913636123633,3.57950818530564,12.6922252465064,3.78876213580684,13.9170276738183,10.9685628537467,11.8597456228251,6.04754099845413,5.70995989755291,3.94236010357013,11.02740315209,9.87106931985769,11.0846050438615,10.0842136470683,9.75514760039669,10.3033241174128,10.2447313696392,9.45702499573356,9.58857183645426,7.48511736752952,9.55211543843169,6.054849033694,10.2144942099998,10.0671287467195,9.20091871799549,6.40159072531094,12.3252433779219,10.0904886161031,4.91775550432058,7.37264708732437,8.39452168817202,3.23641313330697,7.77881118359182,10.0183042697677,9.95442337633243,13.9991336961222,3.81268911548959,10.9591111612209,4.67666568215785,9.67608839455042,10.0229786068874,4.78995222475408,12.7286401989422,6.53627946064229
1.158563595027,2.11737502003574,3.3835423317492,1.72951516756786,3.79408083499813,5.53287675513565,5.64982157607796,1.07137670514182,11.7389783639784,5.55895944762234,10.4400876071752,2.29915460059267,8.97235480048337,8.5048933829426,4.80148128137378,8.69348278609695,7.69185591845132,10.283914715455,2.74526379796761,8.71262972124067,10.8489450477941,4.03199248559989,5.24282059855885,2.0012473717034,1e+08,9.84496200183141,7.4645466909867,3.55734061026169,6.49256556863168,10.6619892317404,5.27874355165975,11.8768520470092,7.04669282668963,6.92016312108522,7.80239077304476,6.89455255422516,4.18334466904141,3.36577526126856,11.0344719102293,7.8552796425948,7.38154677963547,7.61350452353401,7.44953284399786,9.84826341166142,6.44173991440269,6.75936199977497,6.94491046051426,10.6509819680659,6.28189263565337,7.78949548463042,7.23311603426271,7.89267062401792,7.66669866622229,7.25852698841118,7.08902991429148,6.86210662749836,10.0341814283485,6.52158041110205,2.88182525688171,7.21476252646017,2.29798684978908,3.63996076267326,7.01010700150543,7.30792970014326,6.70982253441592,6.04135900104768,5.00361834977458,6.82574555038289,6.88209342372643,6.45992208127336,6.17913781461039,7.22862463095496,7.17008415602784,4.25986079931673,7.63419402253111,6.58745642497378,6.79448049222634,7.95669772867596,6.34356524978151,6.44454733062084,3.40500085262621,7.49262148506696,6.97729951798022,7.92402127993387,7.25428072693293,7.56767541111323,7.63249494954149,7.2019321241421,2.93529113864981,6.94916571276838,11.7259429120868,6.9306900169785,7.3927595269918,8.30120814862254,6.78355708813691,6.52991356157019,3.997117704088,2.02552883062326,6.67263738496608,8.04322959969495,9.02468010597757,9.42625390131935,4.05990278388166,7.84297766448439,6.19508878672135,8.91277332806969,4.62155451396144,8.53082605418621,8.22162590032522,3.81498891503983,11.0073774676874,11.712799704596,12.7884011328724,4.5550069772483,9.18324659771138,4.37927927132599,9.10424227538974,7.81117115752435,11.4060681229944,11.3165520295396,13.9271597656197,9.26359993269644,9.18153697469644,8.75875989487256,12.3772136731099,12.5649114006742,3.35525494535207,7.29942983960128,10.8547583196194,8.73847910875851,8.11922138040472,9.69678786724209,4.20187636957323,10.2898458004809,10.7332907117966,4.7678860114113,9.29810155601938,7.88187932871945,13.5729398886137,3.91199869222858,8.44292555546857,9.67962896198043,10.5306304281183,8.41804293178254,9.28703767397581,8.89757316895055,9.73205377717129,4.61091395677815,8.2906037196221,12.5305519425358,8.27256644684706,13.1334469198484,5.29828948003486,3.39730087729671,13.014601122816,8.22238958157113,8.44579059655212,4.21095440556864,11.602507666167,4.63822874193984,13.3246607144486,9.7859600394161,10.6628577052433,5.47931273301678,6.78233866536605,4.59087086537773,9.79712691996064,8.57916462568143,10.1479863891197,8.88793443062815,8.79518760915561,9.15051446871879,8.92354324320532,8.36479282984361,8.30985774258049,6.46966372514485,8.18422495069593,5.28817614938011,9.03420513102069,8.96420625581722,8.0811314429493,5.19637222659703,11.1644693991544,8.93904898651313,5.73504888289654,6.21064447092014,7.21866111045441,3.20340768061588,6.61732368117426,8.80183099179281,8.72229856576471,13.3841141876534,4.4884234196808,9.96966301504593,4.68300355289198,8.53579205548783,8.88333434953255,5.79181554984625,11.5838173570531,5.90634514987038
10.4629022007264,10.5423623236091,11.0596192266623,10.3695944381223,9.76023241254022,11.6567657578866,6.71257933275977,10.4492504354256,4.04585437432128,9.08018887887721,3.0262961247581,11.0750964881078,5.86016804959272,5.72797777431618,9.82640586594126,4.05479746346228,10.6397894940319,2.99403004743449,10.9531662326939,4.26141775181578,5.7951261337331,11.2434642954033,8.32865878932434,10.9810243654388,9.84496200183141,1e+08,6.05918113420241,10.5667580214935,10.7697984264429,3.75085826816331,9.13002543015745,5.16388179015634,8.08678499611702,7.451590273555,7.45935209217262,7.29789587337021,11.0533328507415,10.2360879346211,6.99350562902175,8.04262756030905,7.93265131246752,7.27506759685879,8.287243154875,7.70281645981781,7.48814375257463,8.54654561101871,7.64343085774832,4.6601964570321,7.67151238446861,8.60717747020183,7.8535905713533,7.53742650597128,7.65148866162755,7.22519112417705,7.69793732542559,8.73482673610576,3.57508136084225,8.62094421345954,10.4393290424259,7.62984789737236,10.4319809861174,11.6454562068879,7.36535993234154,8.57614599555809,8.50477404707672,8.16573538335213,10.2235683582799,7.55065422604603,7.99650012337156,8.29697656004402,8.0269928953387,7.56452608498621,8.70856972318241,11.2204259284596,7.6112196695236,8.48322436882317,7.9272198669489,6.24213425640353,8.23857102280505,8.57321503880221,9.87736909079461,7.8214431752513,7.88202741435339,7.89006174242605,7.0498640105511,8.42344316683899,7.36878588439658,9.2734220230413,10.0326856715025,6.30620423572752,4.15326801462281,8.03695825262541,7.40566278878644,4.89022477896375,8.15899564377162,8.80283179677037,9.4442258212979,11.0054782460195,8.28613175656186,7.83142880796592,9.65743525409498,8.87632412618989,10.6824222565336,8.90797844861171,11.2699143805927,9.65691004476205,10.371330479643,8.29737372111748,8.73607524263585,11.3481277504306,6.52263705421594,7.66324040177257,11.8629019875961,10.7255780610045,10.8267706297127,11.2832607271382,8.87567549001274,8.2146202777568,6.56120208888396,6.62620093984896,10.9688634813456,8.87659048127404,8.86719908688073,9.4385064070831,7.56723218229182,7.31735068340909,10.7997447391281,8.86530771614208,6.9388767665472,9.38804641005116,9.48818794304504,9.1112491907495,11.8463939421937,7.31991179916332,7.2631175064815,10.5784006090282,8.97398069402115,8.23866558381674,9.96170794866989,11.1366686324848,9.89842376336084,9.27966998141709,6.37439432302035,8.51148296880688,9.3811331748813,8.91136844481578,9.53130510763913,10.5789371059049,9.47413125240483,5.76527450276016,10.035898765316,9.05175507783398,12.3453813501249,11.1872523785999,8.62113189743276,9.18354533100274,9.39300748743124,11.2045285195861,8.6367367385507,11.9765282756977,10.2413750518754,9.5313973756469,9.62020904693495,10.0861897590877,12.2167529572264,10.8199378609247,9.20739872758146,8.8684361738246,10.1727128563289,9.47912083241553,10.3540190079545,9.34935952470253,7.71228621868951,9.22008367643302,9.42337718496369,9.54405258573324,8.33368198376744,10.8957883182256,9.58541261367481,9.83562238847863,9.93897665860074,10.356867330765,6.79081576993824,9.89305857277703,11.3496329153089,9.85424612415482,8.70079451929978,10.7860077956044,10.1978983317891,9.20355066038976,7.43456717920664,9.87204291133617,11.1448359560818,10.1641470945313,11.3642790985688,9.33151559236845,9.02891730410198,12.0223075044013,6.39359379425496,10.7154673625719
7.86827430635829,7.85708629785323,9.37239443619248,8.40790775553573,6.26561378291053,10.7630047358103,5.54497042419592,8.10173529853993,6.86749618515282,9.23195255816084,5.75569644978882,9.04149439285305,4.42466004315486,3.43685196017791,9.0534040575032,3.5510712862534,9.0231184723625,5.30736627991597,9.28311258429622,4.19405375441982,7.86582039501354,8.65172689660131,5.28065412726528,8.87824806078813,7.4645466909867,6.05918113420241,1e+08,9.3689617678497,8.73514674637727,5.72942648703612,5.69220298942741,7.26642657368171,4.59942889878181,4.39428290405462,4.51667379230238,3.57872625287033,8.18342195268942,6.8579479062648,8.92187285922461,4.85661903247624,4.68928421136913,3.92282022169858,4.85855557709639,6.77249960810014,4.32356881950561,5.16613481311505,3.89123958311059,5.98779737167187,3.07689501933,4.8342374511359,4.37010799007392,4.43873990311622,4.40358273716027,3.67486651666693,4.13430178611369,5.40350508975814,5.37453670061626,4.94704186348075,8.23760875812502,4.13794465567039,7.52020186117301,9.24490014408586,4.08514025694817,4.86177815688018,4.46756394922434,4.05522386354122,6.54085085085502,3.9967412169912,4.31644197975524,4.60829831426616,4.21793207401771,4.03062339821047,5.22072643743113,9.16331759990465,4.44676007191023,5.15384144057883,4.57882432424066,1.91332691999334,4.3420009217877,5.02345554657792,7.47192721327582,4.13150882715243,4.5777963001453,4.38824567181479,3.94786193699014,5.15308279553614,3.9359004054234,5.89457559889209,7.22654182226787,2.30336015156231,7.03767511111513,4.4940699684467,3.9456178992481,1.78396458399653,5.22901098148335,5.28358995479204,6.47899666546073,8.5657266726769,4.89934075796137,5.28842013003834,6.91660540852239,6.77123187966119,9.03156905183968,5.474266654636,9.94347806838963,7.26531026350259,8.14423456685953,5.44758615701962,6.02630338800966,9.44140790782896,6.60360766312945,8.79457472496696,11.8975964617042,9.5493442369674,10.6887264541763,8.58870139062463,6.49061543483846,5.68092792634066,7.27770489945902,7.15578741632049,13.8756419571485,6.22462841267075,6.7923746628945,6.60196465280468,9.44796891979714,8.81812601097638,8.4026946885784,6.04779463765437,6.88474297838279,6.74111521591771,6.67503583671702,7.17200792452085,9.95303634748111,6.13811944629752,7.99702774309619,7.93615169571132,6.94075438429684,5.44092795871559,13.156113801498,8.95223883555141,7.0643713842567,8.23911425992953,5.90795170484627,5.62285403232149,7.06864111222193,6.35485947153703,7.33107226826071,8.24052135258299,6.41797530167113,8.05119905129604,7.18446342116873,12.7943776169495,9.74382624434306,9.31592158877834,10.1561524891081,6.26571745415807,6.44127374888988,9.58898324278409,8.69869689486511,10.187193027632,13.5326448879526,7.53365626894989,8.13418076634459,8.07459241613617,11.2957518356468,9.5347404204161,7.08118024266304,6.60934294785308,8.04008106662262,6.93707348720601,7.56994559407747,6.83861658805393,5.2812401147942,6.57148029546359,6.77035055440602,6.31496297921347,5.28702086952551,8.03665653588532,6.96594697001081,7.12964063092631,6.90780196793488,7.07691756707619,7.86295930879201,7.17616868029319,10.4322603758709,6.49253683391718,6.2114232551473,8.86344879977943,6.7664845493284,6.66958017178443,4.23232108351176,13.4717603947395,9.56229621440753,7.99072765605257,8.86556111029895,6.36427147488501,6.47342968409618,10.6067150316081,6.96988005011973,8.3318661899472
3.79913527362906,4.73888805289933,3.43281775207621,2.81052347590241,6.71753497882769,3.04578179807026,7.39665524690102,3.05559939754879,12.6515117950603,4.70080072818763,11.828657731013,2.32307696672974,10.8261414748196,10.0588841659348,4.04360361065312,9.97928991053696,9.45359829861505,11.7825289650064,2.33529584318963,9.80172360068415,11.8753217813782,5.27805907217752,8.42708210775206,2.76533847651836,3.55734061026169,10.5667580214935,9.3689617678497,1e+08,8.22981798658213,11.9072053155607,7.89355556976028,13.2836859808584,9.58150439167142,9.37618264012809,10.2746212396129,9.33130544507958,6.72767104267613,6.13316956730172,11.9141468397742,10.235733175665,9.69536510323346,10.0702764589135,9.92110413977617,11.4096024526995,8.81021276339964,9.36896465199636,9.5851231383401,11.8564456983988,8.75008686337601,10.2635457461927,9.81001865796833,10.4396261265762,10.1236431384918,9.61480173424161,9.63257360625837,9.41506294796296,11.459998173079,9.07293863129527,4.11730501941331,9.72677606506044,4.86968217428463,4.72633272524457,9.47093085378014,9.90374668916995,9.35334110786409,8.52450739698527,7.83689035550051,9.2412134382868,9.45549147374232,9.11336749914825,8.84245266601976,9.71757485292805,9.57773140487066,4.46211943514026,10.1316939280266,9.26416949453091,9.25572472675941,10.0784636134568,9.00626191552462,8.94124855016857,5.43403091324025,9.90284689939691,9.50657681743673,10.5049538562828,9.54678957391526,9.976163434545,10.0770135324341,9.59496619897575,5.05270806854547,9.04847375473171,12.8666559035207,9.38866291489532,9.72278071449751,10.0705814097798,9.23163899176234,9.28507752993664,6.29799656964827,3.58567066737728,9.12828498677767,10.547863822664,11.1306053422234,11.3857568080114,4.16257037363414,10.0472952271468,5.65474027529645,11.0783519940454,6.22598580429694,10.6745381358089,10.4187368316371,4.17512821038095,12.3585709965165,12.7745972010476,14.0833900780007,4.10795742263708,7.77824807367372,6.01530046885429,11.4539067685086,10.0671012635175,12.807631090113,12.5782853811608,14.1673802345683,11.4276766005596,11.1585787747453,11.0547224072386,13.0209324563056,13.6255976230101,4.96350452201006,9.28421548312789,12.42928290741,11.094266282463,10.5074773782304,11.7091234074165,3.92684141424205,11.5854232296779,11.753858223919,6.39461405134579,11.3486323319589,10.0913951693784,14.0310040944,4.78235743426112,10.6677600728124,11.1641263368831,12.0536192711815,10.7131728663569,11.4581971071703,10.9368179799696,11.7586604680343,6.23372512367782,10.531223895686,13.4999499424454,10.3909186257154,13.2509135409718,6.47823026966511,3.87960473267872,13.9879922160396,10.423722075037,10.6983266302741,3.4106312207093,13.0662982574344,4.3789207896577,13.4003656824448,11.9898337384914,12.8684272704756,6.57175210790645,4.49186514034421,3.71512395662789,11.9678904426754,10.5434668868904,12.2176412617435,11.0726231008835,10.8327569822097,11.2446197467988,10.9287703642205,10.3972993710171,10.7187362408667,8.41252458559455,10.428328855962,7.14979740384638,11.1680361883936,11.2431003694962,10.3096143624052,7.70100004367163,12.3081467610129,11.0842530909993,4.16581899360939,8.60431781131152,9.45936643230695,3.58978641705175,8.99494631451409,10.9862005431426,10.6172955156097,13.4714049893695,3.8633236885455,12.0484305488323,5.77245648019754,10.6366844314535,10.975635251852,4.60273487236638,12.9529842514252,7.65145135506561
5.80759186024199,4.99454718168545,7.61417109919358,7.60194732114517,6.62398557814432,10.268184970021,6.00398394576803,6.76772897822873,12.8453713942932,7.1671111162194,10.268986899526,7.10327543688087,7.64660725879897,11.104811637486,8.09538118582929,9.69688387984029,1.77918858619941,10.553437014023,6.9411419018028,11.1077618362496,8.24148940670331,6.7866596327566,6.50544985129874,7.22992026923607,6.49256556863168,10.7697984264429,8.73514674637727,8.22981798658213,1e+08,11.043165940028,5.44582364061871,10.4808704181638,8.21231430794598,5.99196867635653,6.84596138897071,9.14902729624779,6.09287707189103,5.44036836227348,7.7881490403413,9.42835047772278,10.0173731774686,8.33234474814377,9.04158000056331,6.40757120596696,5.73197323350888,7.45195401537389,7.82469110016917,8.90922904496169,7.94028554431966,5.84320727142931,7.57438866792221,7.43943012575421,8.85667475120625,9.35854342308082,7.35806022758779,8.71808582469042,9.15698842863295,8.88923604896788,4.91435594707749,7.36306611276575,6.59737366163701,6.54538241779918,6.51579876531954,8.47241275660101,8.45327534319313,8.57817965916449,6.95178526196414,9.34450405999788,8.48779172964932,7.42157405235208,7.72871025152887,7.20341355303526,9.25355531213224,9.13731608773738,7.29527263343592,5.51421788749146,5.72180575159659,8.23916812909421,8.07295666540627,8.9164964940387,4.41865666021528,8.46303806002235,6.22342308273315,7.7000354419371,6.77041811025049,9.35239702503307,7.8301783772407,9.63682076578261,4.87333984315961,7.49715228928264,10.446926022531,8.71583639479409,8.47704359512814,9.27716996055941,5.03684518885028,8.15415512188108,6.17058275890888,6.460066341473,5.62619893910389,7.22974043402452,9.77885197833858,9.47922732354454,6.63337073648502,8.57442996656287,8.3371889599181,9.04622482925488,5.71845671786234,8.61946710339064,10.003738930004,8.75578639374784,12.3972242648163,9.29819403046315,7.89707692850929,8.04474697333086,13.7088108616279,6.32413591672482,8.78314344703755,7.00835140791543,10.2850851401747,11.1120418831411,13.4753906826553,10.0990754270349,8.17257312422242,9.10293949903382,12.3598589895313,10.9098814609946,6.35551922502928,6.91913963654117,12.4939591380833,8.43884687004043,7.63740636181314,9.6239423098647,8.70931124014356,11.8774793763462,8.42312713002794,8.0892071060535,8.15676120416044,8.15835622554612,13.2793557003147,8.16928181934074,9.32339723640872,5.68516855175541,10.5463189889324,9.29672241256278,9.55514250898273,8.97168531388838,10.0166856263753,5.7512094096408,8.9050650967312,11.9731586692075,10.0190944769437,13.7332849614843,8.94098595382991,8.23082961091313,10.6495766467063,9.69457575763059,9.3661672688365,8.39360604637906,8.15095890110557,9.20043549468737,11.8642507188954,9.52090489573262,9.25687325056248,8.27836282195004,10.4928500107947,8.64774816613765,9.55916122272653,7.37396314651338,11.3591523547063,9.47817726752818,10.5651830763657,9.77274286587603,9.94909287877894,11.0355307536349,7.52586135281302,9.1448945020839,9.24971117621427,6.22549737583336,9.37923975354865,9.73287003767825,9.82345522244348,6.05082860321606,8.84206228085858,9.05113292860683,10.8301631419635,6.38893813920096,9.41814848555742,6.99569638298491,6.92407999087427,8.45170612148036,9.91586522165647,12.3631349920161,9.66429716168608,10.7612561339053,7.68557887009534,10.145728386389,10.9721886340968,10.7902340920632,11.817993841652,8.0148594268239
11.1300033815908,11.1510440073801,12.5373413695422,11.1554377632655,9.7640206746485,12.8347125780391,8.02497968414507,11.3585852917445,2.27948597097087,11.364775205153,2.87893997076877,11.9266894592958,4.47037433845987,5.107896045923,11.9409516551394,3.18854417353123,10.7723513058814,3.22432847849806,11.9171815223875,3.72234269613604,6.51861347122097,10.9523166540822,8.13802935469018,11.8368896125024,10.6619892317404,3.75085826816331,5.72942648703612,11.9072053155607,11.043165940028,1e+08,8.65294704776188,5.10816041497377,7.43767567069796,6.70347584224854,6.34737134376744,6.70852673292346,11.1231934487653,10.3292996167632,7.95999523552334,7.03720705447902,7.32370929087678,6.21353993137545,7.36407513676315,7.09273399469091,7.19172791484914,7.86779384542395,6.86795765963482,4.84429699427409,7.20201963832033,7.84442571059343,7.10972222641671,6.55485255069404,6.59311950778101,6.44788336709738,6.91305147948859,8.11339930755318,3.60455785342549,8.05907852766272,11.1675365689387,6.90344472349727,10.7916226286617,11.6913069064054,6.70425318230965,7.75669389871659,7.86858611629211,7.95117245094305,10.03100100695,7.13791421605233,7.30299457964017,7.74730901535283,7.5053179585709,6.70894496613336,7.98237500139872,11.838380242641,6.63157053839469,7.74449816247763,7.26109718216827,5.14644884054474,7.67421015031145,8.16877259848189,10.0822586309078,6.92013708998773,7.0098645857971,6.81065904137771,6.4652716865107,7.62884450074334,6.35117013473411,8.69174995950424,10.4798287170329,5.74499246591488,4.92114129404812,7.44304509443006,6.47272744675405,4.77491915611867,7.52811255352909,8.17491472853513,9.26823452549585,11.5647112485109,7.73660649918225,6.5064158491604,9.01654632987852,8.15515213099067,11.873940516297,8.41091644907294,12.772432181734,8.98064743048569,11.064078605711,7.63872109152706,8.22766190419475,12.2229936916344,5.16712146309052,7.82787097401771,11.0520489066379,11.8135983681126,12.2529833026213,11.718863895461,7.93075640380157,7.74164148489562,5.26457915685686,6.80340693690007,11.1038737257813,8.06269245635817,8.0365317713218,8.72004900324094,8.26358874666986,7.17184631889898,11.3404477672475,8.66559208090926,6.57927452108174,8.54486795360139,8.85738624099682,8.23857139414533,12.7749251982379,6.72728388552782,8.27071536398051,10.7487571083856,8.07879167206124,7.631251665052,10.0238086745106,11.8558449403884,9.29590836604268,8.82471815457508,5.10879982337142,7.84625602449332,8.55281965231466,8.24324548980457,8.63545299389586,11.1037740376085,9.00529285687786,6.6432647741361,9.57609268045921,10.2182384727008,12.21903145488,12.2547394910354,8.09168373467567,8.58315115168021,8.77068193179473,12.2373982786893,7.98215445261542,12.922836808834,11.1640268003532,8.5936385100015,8.52835838735427,11.3922942508756,13.3587188757106,11.9160164994306,8.20988225455483,8.40471038520329,9.13568890715636,8.77346251013104,9.83520524397845,8.59258637940318,6.95166814325064,8.85080289981286,8.75101509564853,9.55511647531513,7.76099731452979,10.8376105394894,8.86333516409126,8.9498358341902,9.47912520512391,10.4484470299707,7.10092699093139,9.22864555970311,12.5214233963593,9.58689838283247,8.2780693712361,11.8040900505004,10.04438860239,8.36430709201443,6.59989216881887,10.9437149646289,12.1294631633096,9.22156766642923,11.5518985229405,8.83607705761293,8.36250664493068,13.046494854278,5.14884390769116,10.7327396344141
5.0308933839569,4.55007075429265,7.75459723075578,6.42915381992249,2.88769677948685,9.57166641087213,4.62124798059776,5.685824259416,10.4410604993284,8.68589640699415,8.91418359627136,6.67173405831678,6.07554268869079,7.16935948537314,8.64035691009065,6.99195235010774,6.0609640637027,8.91757059060821,7.05500998231338,7.88178790324811,8.97240382219317,5.77006144807111,3.34105259340752,6.70157231970053,5.27874355165975,9.13002543015745,5.69220298942741,7.89355556976028,5.44582364061871,8.65294704776188,1e+08,9.92319616979802,3.69217315409826,2.68402820577079,3.58703616686962,4.54894158521956,4.01994383894857,2.70164199891761,9.71613213196805,5.10307499469191,5.4853620076275,4.17730947128774,4.74588590244275,7.25867962147827,2.61342829237507,3.38112639014156,3.52576873325648,8.51827475624814,3.65781083732033,3.82937496253331,3.53739337721363,3.94300568495903,4.60082186435647,4.80570395742903,3.21065568375272,4.5492176827927,8.11539181168853,4.24201348939167,5.6308963663085,3.35638371520816,4.16406580511734,6.43291120282178,2.91765515305561,4.1586478736597,3.93662578676063,4.23867840753289,3.27410897416652,4.77449033802177,3.83702682734155,2.80906959031793,2.9636684106958,3.15757662184473,4.9225216438508,7.89044810076518,3.46137442427075,2.01420525989107,2.37476563579394,4.97568654445062,3.37098327487353,4.34256339789471,3.31930647637744,4.16482590722467,2.54705279386146,4.01804278408285,3.31040471621845,5.10480873087235,3.88503645764443,5.45637902129959,3.50804368042888,3.97671897271902,10.0121582879485,4.31113332297317,4.23055056315017,6.31418272726209,2.44141720597988,3.65587858333378,2.28828297256995,6.22619219479033,2.2919455181954,3.9298186449596,6.67061087750856,6.8185272602282,7.23703879073066,5.52195635462079,9.10023358269649,6.35615948658665,5.77570652246611,5.80848112765003,6.13681127660316,7.72847012716357,9.38561413538526,9.97406003552587,10.346244864401,7.87720259965828,11.7314051745336,5.39255246807047,6.06242250275277,4.7221935265339,9.03452903907587,9.8887372301692,13.6801269305085,6.73047351479484,6.1686992229492,6.02341558607142,11.6593989537941,10.8349718136366,5.40696660889392,4.56448977238943,9.74202304347694,5.73765072079002,5.0599645917017,7.04777046361327,8.10803006829745,8.93945327663115,9.31024618890586,5.62718587365194,6.29597256561491,5.0349602592083,13.1136170211955,6.79816722509404,6.17653367208761,6.67637708793336,8.24735949814026,5.94809850428953,6.48326779222574,6.17048719717725,7.13271536668574,5.65264170887755,5.89270857630213,11.142337033751,6.55789714354568,13.3279625774101,7.55544189712866,7.46497134748002,11.1586050764451,5.96731162117935,6.02069387953653,7.90575579400399,9.14134959908758,8.45343324978251,13.0492565951053,7.01878056183735,7.5556927457384,7.57151667126645,10.1071488113571,8.01898459394475,6.85102383340434,5.61892542930419,8.09864697223768,6.4574401327948,7.22015235914084,6.6475885407385,6.64825639188266,7.06368157521541,5.17402577751261,5.67541824299584,5.7022433426439,4.30394922598738,6.39739445910339,6.52012074242267,6.21349591226193,4.15115992453298,9.30125888454411,6.26622870095656,9.49685545815502,4.06725582036442,5.4743144802448,6.75379032020669,4.39792166897484,5.79406848261036,6.65086338414908,13.211832180361,8.27846769384884,7.79772218502364,6.82045867289851,6.52488862558562,7.0753975304078,9.65507782531757,9.57481841274094,5.63369262323042
12.2130670490149,11.8806863358008,12.9678178432386,12.6626823611325,10.9397341101477,14.3542313286038,8.37926313468294,12.5668299965592,6.10136771613175,11.2768598776201,3.41660637789068,13.1631717052285,5.62964452172985,8.04570455373429,12.0345236061134,6.52110493635025,9.87414778083228,3.85222641843746,12.9680835869189,7.47293104424589,5.08011116626776,12.7620301233824,8.9442611290187,13.0319435511324,11.8768520470092,5.16388179015634,7.26642657368171,13.2836859808584,10.4808704181638,5.10816041497377,9.92319616979802,1e+08,8.62812306172237,7.52201492008644,6.99274425969416,8.70723629779425,11.9936559307235,11.3756344059477,5.42455335357768,8.53127198746157,9.21545767774971,7.53857475494405,8.7188636268381,5.72060821288036,8.02902367465951,8.76785942546248,8.03349438797464,3.90092330768995,8.65623262774083,7.64737144818608,7.90341216318546,7.07178315437703,7.97229404346084,8.4757089618203,7.8544855876001,9.24284870443935,2.68293474786553,9.61691642778687,11.9832244520654,7.71991985616317,12.2158654243665,13.0362733334955,7.43690527643661,8.82638915830541,9.18757426937941,9.33487410186703,10.9270777534482,8.97925604502686,8.76825377235987,8.85745549878595,8.96447315902823,7.67524067686916,9.38741396610417,13.1498929399124,7.46736685834155,8.4491416121644,7.92676377462327,6.72511362607013,9.10123728308425,9.65470108185233,11.2925880439298,8.1376003046202,7.81475582022022,7.41907308896648,7.22160173530201,8.89874759388196,7.35293624158947,9.98964460193406,11.6299766231217,7.47095276259289,2.15596762652379,8.78223331897276,7.86881234745875,6.30454538797015,7.99695137215595,9.35435504858387,10.9055531505318,12.6866241555056,8.19370887073092,7.17824601242224,9.88636101943891,8.96859343821293,12.6479211079987,9.39723906229401,12.9679405010592,9.67662575921599,11.7360222322708,8.5642368935153,9.73460565268821,13.6098953688775,7.96946493490377,6.44501445379958,9.25643025751028,13.1072902456038,14.2162549247726,12.6667483692372,8.56483838325218,8.43648572174923,6.1886400571101,6.51015668522791,11.1998897482869,9.14016156701557,8.63307867931295,9.46623490471111,7.88538632646598,5.95978873431576,12.5192356699193,9.49706909619109,8.07210949556017,9.14980348547036,9.42056978425886,8.98078622094525,13.9878457348513,8.74861660843279,6.51781292961749,12.5097236600176,8.54510193144096,8.82545065091318,10.3712232123872,13.1970585941525,10.2047009664964,8.48170786539658,6.98124541388059,9.06035307608258,9.42013016284966,9.11883803342084,9.50432557046169,11.887672271756,9.71750182514068,5.4712802026374,10.7328926005437,10.3924964333027,13.8284104048779,13.3704695647492,7.07144761869987,9.9459687188755,9.77549005162268,13.5634760878368,6.37234522382097,14.1183213126286,10.4373155188504,9.05476533124784,8.32513398300539,11.7502714271778,14.7084141392275,13.2555015810903,8.82478494746539,8.82766177900897,10.207086456763,9.67948773330541,10.9361883090752,9.5375804109072,8.56024588537616,10.5018821924515,9.14596504633903,10.9942984274743,9.06503420867472,12.0046600702253,9.67880742627758,9.93952069791784,10.6326426491365,11.1200869736634,5.90305327015643,9.86045368932919,14.2608873437548,10.2889529442255,10.0318964948952,12.9003683296234,10.6002395818599,9.12001446651561,8.41447066294752,10.2766750571896,13.7937196238535,10.0832633066136,12.9090778378394,10.0281504346457,9.94820293718433,14.5406167435767,6.85923192309561,12.1764394024922
7.27216719300393,6.90334356905612,8.98262609810043,8.00301589096788,3.9216989947785,10.6163399768634,5.68133714063477,7.53910060730834,8.97698747966348,10.1620673778906,7.92312290728024,8.6303024030904,6.2890432195092,4.96019250119956,9.56711448155889,6.39898186546158,8.58433203595561,7.65224703087924,9.02856553341514,6.52631805621082,9.42283763210684,8.14960024840096,3.56975873661025,8.48722303559031,7.04669282668963,8.08678499611702,4.59942889878181,9.58150439167142,8.21231430794598,7.43767567069796,3.69217315409826,8.62812306172237,1e+08,3.26104891368573,2.96897117783845,2.12078083924065,5.61802501870292,5.03392981282876,10.3514891981873,1.80925897885382,2.45402118251985,1.46228022323149,1.64152755149317,8.0932120546976,3.8395423704588,1.43360820069021,1.1299062574969,8.32171759441883,2.07094425307845,4.19008205829058,1.1262867926965,2.28455785401503,1.44121122098188,2.09146383018317,1.37893161069398,1.80622707377048,7.29265578750687,1.63059837748839,8.23220620895422,1.43600757535672,5.97667947585702,8.73940557937278,2.60678519108522,1.01949062778567,1.16894750792177,2.11658568791855,3.55369005893648,2.11203591750854,0.724439713614896,1.00968546286041,1.25793196657577,1.80199634907167,2.01308062976784,8.58994027308312,2.01212070203257,3.43099242077786,3.27380227708935,3.89711080332999,1.02846516798086,1.71372584865319,6.41730763463132,0.996190506625588,2.80751243434576,2.03909629157163,2.76655073738265,1.85370916708247,1.65679556237053,2.77247442367421,6.34289598783327,3.70894639525971,9.06675949459592,1.07165985583853,1.25463145818286,4.78494298240065,3.99023586310636,1.27513909529677,4.38719726402871,8.2571415826894,3.09078618772511,2.94266673253953,5.45886741514853,6.02253198646188,9.32662219795388,4.92816850293214,10.4120027309609,5.73493459704958,7.92789498146926,5.24331355008588,4.50122031015191,8.99605495484463,7.86173161793081,10.298015049323,11.5283235775652,9.66852625999784,11.3453635787127,7.42283425643651,5.31009685926022,5.30244991399397,8.74898624098655,8.94136717517971,13.7582061273064,5.12071215458074,6.27874297958346,5.01862408494677,10.8609315524808,10.4756977633537,7.58670734947159,5.49644885404029,7.85042455412001,5.25070011627552,5.12118751264241,6.22054556076313,9.51343947303258,7.45179557820603,9.67775471981224,6.87969530800475,6.37946486262858,4.84389862428848,13.0652100657104,8.14731952795631,5.24898793066543,8.43560039412305,7.4779820118693,4.84828177331133,5.40834425311189,5.54846057676702,6.02177561813194,7.89848822129952,5.03769668458159,10.0235367806996,5.23997477246557,12.8889710336363,8.84132733807509,8.83570216534215,11.331040211691,4.63808184193473,4.86730491239207,9.52314912302577,9.75925530125271,9.61730703262221,13.5824779231754,6.10660666992129,6.90063246771971,8.17507506539521,11.2882436626072,9.47580952543135,5.83056658555034,6.15240694598387,6.23871548802185,5.49392999555151,5.7286971396855,5.45722797784221,5.41589031381615,4.99303942524171,5.25754609366269,5.16981382258047,4.50190894903952,6.45436111603225,5.46292604641154,5.31191644078299,4.84173174913575,5.75936096405782,9.6354467947967,5.54177614722437,10.2536328345654,5.30778447943513,4.46274112246339,8.73901895629822,5.05059604947185,5.4804419704343,5.4674875339973,13.4958694802488,9.28383865990653,6.32098293646739,8.55087141860517,4.85226539873689,4.9826638289609,10.3623579679727,8.37578299272883,6.66195955888287
6.88739131907921,6.38840847711151,9.16640040670081,8.0868447092957,4.75084871969572,11.0220492831888,4.27300404711271,7.5112145182738,8.67122747982126,9.168097480148,6.73104829438635,8.46269621550008,3.87239311009244,6.1789195316634,9.45487168458549,5.42737668685955,6.05915090590063,6.78387462104453,8.66375128572478,6.74737251713902,7.02375890043644,7.55725060511569,3.4357632826443,8.41966989615961,6.92016312108522,7.451590273555,4.39428290405462,9.37618264012809,5.99196867635653,6.70347584224854,2.68402820577079,7.52201492008644,3.26104891368573,1e+08,1.26412043555407,4.05480309662012,6.05845080701613,4.96084781592086,7.93998742810538,4.49082536782168,5.2203590963036,2.87933506909153,4.31409466101694,5.33888164546618,1.43956762736739,3.24298094172362,2.57441047802464,6.2508523046167,3.30056864901541,2.28002354106533,2.48047527590042,2.0552154327018,3.68469799454846,4.15067564604715,2.03489061064438,4.57847077346355,5.7969739059636,4.48547635006856,7.15847532830276,2.06643985252337,6.32879603798872,8.18286614407801,0.882361030817782,3.79726672482467,3.88518777246371,4.36127469111263,4.82575715386788,4.46903333403141,3.48799448434202,2.71015513852202,2.94042932698656,1.64292454965922,4.9106743058605,9.31991598959546,1.7479348983471,1.1762202316943,0.675498796815594,3.11993094900088,3.38951941505983,4.62641743736508,5.27693682781973,3.33576744145643,0.750421566239579,2.39690393970539,1.39940305720239,4.76481460442535,2.33979202512199,5.67385681305695,5.5688742322218,2.53800228825531,7.68674627229559,4.03513697954138,3.31376991468165,4.5949100491681,1.12097990404186,3.84234079603465,4.49945049074458,7.93332919260658,1.40846236617069,2.18699121538748,6.29772973768669,5.98207781289163,8.52983175489342,5.13060349616933,10.0195999884097,5.93993648498518,6.95333465610552,4.87086325489014,5.83762821931249,9.31253531720008,8.0071281613764,8.21617817456471,9.22664871794276,9.19684284839488,12.4038854798747,7.17678794119047,5.05433998951832,3.8004409442462,7.11297376633688,8.15391290180123,12.8793830916345,5.9658890737741,5.21219225766008,5.52116198291519,10.2218007950618,8.90799361443355,7.1814102948779,4.43282947114881,8.42229858867899,5.09223696117712,4.69167128592701,6.18073469595971,9.75005184835692,7.88091888036467,7.6635572437496,7.201961891362,5.28093926178133,4.34403798064643,12.1615674682701,8.45161682729189,6.08700064213666,5.6392064333591,6.56089430343804,5.26675011104864,5.87485328130579,5.47588652085536,6.47461908036844,6.94131232204619,5.59875914471945,9.14711069848287,6.70038889914074,12.4344631607309,9.17916814554755,9.04275396181992,9.43482296178214,5.78699494170318,5.71759424965106,9.42847236075475,7.28971037995129,10.0454396455465,12.1753098597997,6.17061185155254,6.2924023895741,8.3074228064052,11.4709877021415,9.38481731996713,5.88668815500058,4.85283095256414,7.62686819716944,6.02511143774571,7.29944695790696,6.10672911081456,5.66600503862751,7.01560280063997,4.6178206406065,6.30907294529838,5.07052519959387,6.03607716823979,5.94855355736952,6.18940411650991,6.37089734761569,5.38396339505895,7.42127427296731,5.93306948537903,10.8630545575733,4.69088211716165,5.5613467314199,8.32201413659737,5.07442076732836,5.12786866112025,5.6145435725225,12.2871744572766,9.78354093354578,7.31999432718442,8.276288063929,6.29441248138463,6.71747316319911,11.079288102023,7.83512496870859,6.9691703678057
7.82567228263152,7.30908473426298,9.92736842155085,8.88799428341336,5.33298521957239,11.6913579005494,5.2096441311184,8.4149160705837,8.32956852954336,10.0641423030862,6.50522345863556,9.33480742249644,3.95668878864574,5.9754949097883,10.2215320188055,5.56246606730356,6.79019352696467,6.54554914756077,9.53252257056808,6.7180631894182,7.23971075217292,8.32083142181807,3.83702736818122,9.25594910558162,7.80239077304476,7.45935209217262,4.51667379230238,10.2746212396129,6.84596138897071,6.34737134376744,3.58703616686962,6.99274425969416,2.96897117783845,1.26412043555407,1e+08,3.96541383754041,6.62434650697264,5.77968253558664,8.15888075813096,3.90000303319753,4.9122176289607,2.24673850212155,3.80659555740543,5.47360442695458,2.53748487649424,2.98858058828178,2.28164331142134,6.26946493258953,3.43112385119682,2.35799506293763,2.01744734951573,1.14846981885868,3.05388235630176,3.90067691402356,1.71360814789841,4.23731362307576,5.57861269596134,4.34500513430714,8.17300649501856,1.69116747314516,7.12230585459346,8.95010037304979,1.16349621914051,3.34911956652893,3.70001083736797,4.41497630857607,5.15642413090313,4.36009734908554,3.25997090954219,2.74285818326748,3.0789267596717,1.32878254764733,4.54256967043107,9.83114889144042,1.04226068346982,1.96103771726286,1.60067774583843,2.99573641898271,3.37454669844209,4.51774531807765,6.31076774786427,2.82546721371117,1.10543420196402,1.51902404741547,1.54378534914048,4.25456361554195,1.64095849228461,5.34132415838189,6.62404922967437,2.99779438184066,7.42864305006933,3.73334084448096,2.81308135171754,4.53744703889917,2.04322790105194,3.66004859821388,5.23679533400633,8.7655705986981,1.96897689796972,1.1982331629875,6.08310983561639,5.8121297000219,9.49546264935727,5.20291021537569,10.777480026635,5.80542607411879,7.86997815493206,4.86351775580957,5.69227394760148,10.0358967709236,7.6808049424195,8.29932170542938,9.17489019396182,10.068141918039,12.7999017722809,7.98431497868992,4.79002751486061,4.17607619108518,6.94723474685032,7.99255649295633,12.8320773679913,5.6341105153551,5.22355668333633,5.31815229869232,10.1140673179082,8.74603932101821,8.0710698049846,4.97882326401122,8.07341924105348,4.93260260410868,4.76038812807884,5.92787222561463,10.489348486255,7.68751596962822,7.9267663290266,7.86080044226928,5.23813379318834,4.50905813522933,12.0886188784375,9.17764931631442,5.96103415458563,6.12401172921106,6.38681563165688,5.16153811833434,5.59970374809125,5.40370374775837,6.1659847499463,7.84294474054029,5.53599178151562,8.93770335962123,6.56923774802057,12.4294755989867,9.69284603318527,9.81754601746331,9.32859190933977,5.66605284979085,5.56680039191098,10.2533980031537,7.27564133750516,10.7208028098429,12.3280883981532,5.82032152369711,5.84147217312295,8.93917361009303,12.1523399130864,10.1751763340159,5.52217903984733,5.10453770915137,7.11874756595562,5.8440319217646,7.08703417149068,5.85748586280561,5.5263846439038,6.81488542412372,4.64092902177262,6.58616872118303,5.00369465789379,6.77610308487769,5.75565756839139,5.89928916793554,6.25010394954488,6.07036803219196,7.57606466699288,5.78211678183676,11.4988985884438,5.22814526961698,5.61639620941502,9.25027325978622,5.46923772931509,5.04229702751648,5.53153541020281,12.3952388598303,10.4768190040012,6.89999814544745,8.97935773032855,6.09729792261577,6.40147381755041,11.6660781263964,7.49643972099966,7.48371270885634
