1e+08,1.44204986916907,4.61551920217893,3.55259783112917,4.41001430914924,6.20285064490141,6.52625995255337,1.81887074671438,12.942253972507,6.16967809773579,12.3343931993099,2.23385951835552,10.0262667011252,9.89141198291412,6.46473654708822,10.0790114134182,7.2158133652109,11.9272361256966,3.07336448775222,10.6170287195579,11.5351827475865,4.13066291126146,6.57229724975151,2.24445477097424,3.13388759115053,11.8409245332857,8.76450934892695,4.05992575703607,5.88538672805635,12.605365037881,5.65561729038743,12.8129954681135,8.34585265894364,7.97931087733788,9.1814714792483,8.19027263740177,4.56927243250025,3.21938380541631,11.7037319225029,9.48195066250682,8.94207028974009,9.24771266647528,9.00363447620946,10.2077249459256,7.55266338704889,8.2873114286313,8.39491357632484,11.4816083899216,7.64826423476283,8.35322802546608,8.70703607262669,9.19296354249488,9.331379992836,8.69994892836864,8.39745507967545,8.34937901743929,11.363531923805,7.89268693707372,4.03602534762364,8.68826234173731,2.67539443177865,3.48343183700762,8.39908676801321,8.41461959706947,7.95626036668665,7.53329181738888,5.99443551323356,8.251495475629,8.26971504122698,7.71836086190162,7.26854593972649,8.57887790264366,8.60693882980274,5.22474165230794,8.83191706450917,7.15991941179575,7.87577124666457,9.09937562877318,7.56005800228287,8.11398765649564,3.49216790656621,8.81028049919013,8.01329375350321,9.12407289841928,8.89789780473399,9.34073441451899,9.08782334296522,8.52547915985107,3.06488514673002,8.1718022985502,12.6207853738722,8.71842251806754,9.21035143134339,9.35799675358417,7.75786868678507,7.3424357836553,5.78736805696526,2.31058888825976,7.96122005208683,9.46149533440981,9.47923365653441,9.93673311172185,3.82544128829217,8.22351525022165,6.28706805408751,9.3008313871541,4.40461975535832,8.9794285252406,8.85725647786428,3.71573560223294,11.8232840781214,12.0211797265899,12.4679042309236,4.82923273536765,10.1098371701182,4.01717685547226,9.42834043402847,8.09599909189636,11.965508345347,12.00213673834,14.5309542356848,9.83681711262199,9.49011581014226,9.16340508214952,13.0096407474407,13.0229785839117,2.65077837615951,7.56380400133447,11.857549312255,9.01369306795414,8.36381435388378,10.1955737659096,3.95429365452191,11.1000100455402,10.9726039731655,4.90312101652693,9.56245046299802,8.32573121654694,14.2249093177402,4.09895119049475,8.83097478249747,9.53801539493971,11.2042819999251,8.94310390257235,9.70854388982942,9.32053599761451,10.2212010315931,4.39073957904463,8.74903266265993,13.2682503839165,8.75324470271415,13.9455447136396,4.89691962835482,3.27042841067539,13.2927719608669,8.74569993942444,8.83004929965849,4.08758134755255,11.6410383928143,4.38744685307563,13.7045729837855,10.2286863328439,10.9687167934544,5.74028315708107,6.80899173651862,4.5871559325457,10.248878696843,8.84206528906414,10.6871408351132,9.42192082656834,9.31761662551376,9.62806360663897,9.57998476856938,9.09220541722354,8.49505286831467,6.85869035696478,8.70530632123423,4.93817425232236,9.45914089505916,9.38832580876089,8.51250649987008,4.97967559872299,11.4955850925874,9.21937222110276,6.12456672896552,6.15118557311124,7.77831916258408,2.64902161805139,6.65189413651396,9.07948449529676,9.27600555348919,13.864285850425,4.77278982200327,10.4869539873271,4.58038110942118,9.18813938009909,9.57534772303651,6.03346897566671,12.3879711087629,6.0974161196135
1.44204986916907,1e+08,4.97804759935711,4.60076225660353,4.28211974118114,6.93697939758796,6.45397824895026,2.86285190697428,13.2729036039414,6.44039732089091,12.5095397159915,3.16663023361418,10.0349293073735,10.1736972756779,6.90399374540414,10.4323969287217,6.54090572933952,12.093263456464,3.60496314534118,11.1202973858597,11.3790232929392,4.91278620726324,6.44885265008799,3.16769933626929,3.96718382294571,12.1528344625323,8.90216293539344,5.00231843260039,5.12454447393459,12.8682853478292,5.33830142331651,12.6244417493013,8.18848669025229,7.74822197763258,8.97170806095704,8.22876893882243,4.17299852046744,2.69896320526185,11.4790710480295,9.42627434203525,9.03054719972539,9.16433775941574,8.90826650137755,9.85376386859713,7.41971364345897,8.11249807240542,8.26910999850776,11.3786790292199,7.56654810574102,7.91559846209158,8.47729411174144,8.95967524881306,9.27389189940305,8.76206029071815,8.21017230590748,8.22965437164524,11.3538095092939,7.88469718849161,4.61222796185951,8.51810649773244,2.92368824903676,4.12710018195489,8.21546648040781,8.16599226359643,7.8822661595134,7.54817609579638,5.67153191226292,8.31266436645699,8.19459355713687,7.56104708555967,7.13023356045227,8.40034328556899,8.54520090024901,5.89811777578268,8.57586128824211,6.77448020678918,7.61534727001083,9.02244633659287,7.4446536810393,8.15547183246952,3.41316681263375,8.66322914178936,7.73998099772104,8.84311612894527,8.78610462819123,9.30862325342755,8.92981224529621,8.42226624636555,3.1748080308301,8.1513812610653,12.514461163714,8.7002718992621,9.187601017709,9.38033261167199,7.46178688057892,7.13375211712326,5.94506392330778,3.20526528827889,7.71197734068291,9.24539311364893,9.33475480262987,9.8523784728468,4.41305248464464,8.05580807251306,6.65770837762502,9.14741318276922,4.62978397559269,8.84229955369534,8.83776080086664,4.44686589531437,12.0817025092542,11.8702597234709,11.928910184511,5.76269158503746,10.9241565761613,4.08050072259867,9.14406028492545,7.8800286304467,12.0178750063462,12.0277379481661,14.8283511443958,9.7296550758346,9.32738629649461,8.96626683143721,13.0965571998475,12.9260314207372,3.03129311990758,7.45117277169791,12.1212748669203,8.75869028337352,8.06274411396791,10.1275301792608,4.67823218448942,11.3292814902515,10.7703577473406,5.27995210641631,9.37338472231149,8.23266733145124,14.5116743042068,4.73293718972451,8.69667696356499,9.17891723677506,11.3409805292729,8.86205488305363,9.51927453149608,9.19491950617596,10.129215409957,4.67926128006486,8.60689656703541,13.287711389398,8.6837373447487,14.258882140996,5.2917043300635,3.93253130930786,13.1466766963183,8.68901373080273,8.64673568626293,4.90115262776661,11.2910146107831,4.9103619628753,13.8116478925362,10.0834404173648,10.6503818787532,5.86863267024122,7.44411709346913,5.24742041203408,10.0946568143705,8.64507646907799,10.600476313789,9.3631128771817,9.27133285470496,9.51450648480797,9.62437350219735,9.16271990267202,8.15462075282201,6.85387216001286,8.59180193300978,4.79017119920495,9.31140887845484,9.23302574662084,8.38480384512508,4.68996612978618,11.3513012116777,8.95257819242792,6.97531131050867,5.86543210177687,7.79162507966894,3.34628188723467,6.28306739819548,8.84537296831932,9.31212535614045,13.9963014359869,5.6213546284491,10.3866638643917,5.20667871754213,9.15303496568604,9.61096798098626,6.76621350823297,12.5568418626576,6.21100910124388
4.61551920217893,4.97804759935711,1e+08,4.30177203870265,6.39291201414254,5.96184559907195,7.78510713595615,3.79681183877153,14.0397230694232,5.33936512474887,12.9540682435768,4.41693843506375,11.782980284329,10.997158403125,3.27366599347148,11.4967033723825,9.45495010837308,12.5569985794352,4.9412106300995,11.4935072334954,12.6465705929244,6.81599954233288,8.12948626856496,3.98383095498595,4.07020654450602,11.9657950327777,9.88396191531321,4.73240946686922,8.05382140830391,13.4913368677421,8.25832175219798,13.4038841138963,9.61501111537074,9.70964425458058,10.644712092458,9.77525129367963,6.01752457969949,6.11404179394814,12.3999358966875,10.3244536716386,9.9033345452213,10.4071029824987,9.92801759099534,11.9222880162649,9.41406241971183,9.14404269342616,9.84819084026164,12.6092601066861,9.0889329577024,10.162135340803,9.8085927869141,10.5463497873116,10.3287587029056,10.1150981023762,9.76650221717805,9.12541549458073,12.1013154334353,9.06164520416243,4.82780106627807,9.92806981227611,4.98572408393375,5.63054021184923,9.83293993343307,9.65614089554942,9.3407596125865,8.61962637230992,7.1758633908376,9.53674749477075,9.71033130897316,9.09889256128592,9.03975226725512,9.95396977865771,9.35804535610302,4.60849774945169,10.2875819316914,9.32612023716967,9.58971231735698,10.807554128931,9.13554208512598,8.93601570108451,6.12034834445616,9.99636191516649,9.70680897972048,10.6342383395336,10.0990734819354,9.96009474691696,10.2682001477401,9.14345638408413,5.40375542205117,10.087709473144,13.2560693200952,9.42492060448734,10.1322849062763,10.5155156832992,9.49811822665405,8.9036675713843,7.14704287259433,4.07720140621195,9.33779538476688,10.8867891810642,10.3734786557533,10.9958737012396,4.57219107526517,9.69695981543098,4.29146842257124,10.3756182698375,5.58923606948363,10.5926834967065,10.0827302345709,4.83501213425912,13.1003496764748,13.11087440212,14.2147568389685,5.08649472723353,9.15714053124171,5.1007970578042,11.0914960299106,10.0925652273302,13.3629175208128,12.6076430489707,14.8086217973554,11.0599366188183,11.0028601198801,10.3948904710028,13.2477479904866,13.9269877277487,5.28570726601344,9.29962817015847,12.2250757134802,10.5432962992063,10.0656815401195,11.3164423864467,4.64084577071429,11.8662719723257,11.7068645402987,6.53021240671049,11.0461764754857,10.1590832119832,14.6442365458644,4.5087372740083,9.88511307787386,11.7577832931473,12.5039147281979,10.570442869145,11.1054622336887,10.6210066189907,11.2032527493327,5.63895465105628,9.8252338972816,13.5244803019505,9.50936481345518,13.5596492487341,6.88549323908335,4.22787424751687,14.5801104883468,10.1014067604903,10.0902698758132,5.04123684464611,13.3092088491476,4.84956807336622,13.8672850369085,11.328566693332,12.3002705691407,4.39971401948507,6.55786459685165,5.45948416101394,11.4313684157458,10.3622670997546,11.437744203009,10.4405552381749,9.84001399879445,10.6936776313277,11.051006349222,9.94257215018192,10.1203226192293,8.13610229732228,10.3457582153098,7.10399730994349,10.4736838052814,10.4980110335715,9.56464399322435,6.97232165858851,12.6804635552882,10.4628455601254,5.78528408780166,8.14578991351697,9.41316409393654,4.462420987158,8.03595318165276,10.5411242634126,10.8430128017583,13.8887525739557,5.2469651647778,11.2625846310745,5.71342511227282,10.1208860983017,10.6357981377891,5.72206379325057,13.3618301512201,6.92329730632024
3.55259783112917,4.60076225660353,4.30177203870265,1e+08,5.30101368613692,5.93794696720715,7.37663826065423,2.66736405984787,12.343807723404,6.76985579373734,11.6905485335474,3.22105835586891,10.1965643153445,9.67668223778465,5.68287466676491,9.6761233091572,9.30453324356494,11.4418393837616,4.43211996333534,9.48293495769266,12.2482740166439,4.17866547642177,6.69572683675257,2.72322594872628,1.98804247005384,10.8835308986878,8.98689063144975,4.34842583847115,8.11164190801229,11.7264462669409,6.98298404012486,13.0685834652575,8.64138257388611,8.56867207193069,9.50094574087981,8.57965394647582,5.21621451636186,5.26948274796441,12.2873590125617,9.22011691861678,8.77352059024867,9.25724840215055,8.83181544056361,11.5249832342412,8.46620216838402,8.25984728927813,8.81686555356456,11.9294938714146,8.23446653954895,9.82746538279025,8.94361745373263,9.6103666296628,9.11768290835237,8.79334997952002,8.82147409062246,8.15893269914922,11.3328468517633,7.91886169417527,4.0934120693235,8.96209309817268,3.66332961132951,3.92175938850332,8.86847533556354,8.8435940233405,8.34426259616573,7.78648856065024,6.40990979147205,8.40062389942914,8.58804790759419,8.12069592158488,7.95810681920422,8.9296172237246,8.3789445183363,3.28625127927477,9.31156288184465,8.23460958772725,8.54119608396358,9.81938506100348,8.13063809807634,7.85894792702446,4.57818826823743,9.08501619279013,8.62253805212678,9.74394708225951,9.24881355968593,8.92237039966837,9.28483990533177,8.35599174374559,4.47079262091695,9.0181476913315,12.9191979888496,8.41759076274271,9.04818300375659,9.7657290063392,8.43000417079479,7.82287052956882,5.38395867591183,2.70468309176525,8.48171492386057,9.56745182119535,9.58490393367796,10.0015191020376,4.85874143750123,8.9514992724803,6.20362244939171,9.32936316046835,4.86845193982063,9.62351800360108,8.96897590830267,3.95092857325905,11.2911625323786,12.7011630869423,13.7543786941367,3.52189334029853,9.22919529106662,4.46508604849805,10.0448885332529,9.02410916389802,11.8025869624702,12.0478964260059,13.5448555499135,10.1051203788306,9.82073179489939,9.44671811767451,12.8041774342123,13.3725215785018,3.79979040215169,8.39094770686594,10.9301597230643,9.43822631997213,9.17673901120101,10.1071562884747,4.09183374574377,10.5862259442247,11.7781699882493,4.80384658693343,9.87172500324385,8.97575097411386,13.273690572981,2.95767978180128,8.91825986996331,11.0631609385905,10.9315020991736,9.53799459310264,10.0819231927071,9.66510588570733,10.1907511954476,4.6845288892946,9.08233925877477,13.1869054411103,8.56061792285063,12.6902307845525,5.50017489420668,3.86299565890782,13.912377997125,9.04237470075851,9.23358875965327,4.36502809539449,12.8340722425377,4.82037914463564,13.369195492154,10.166043528319,11.2984716928581,5.62831607042392,6.72827745961646,4.83283998896914,10.3165292034746,9.49229297031042,10.2538951818127,9.31677744205274,9.00230585044689,9.65981093864078,9.84532925642868,8.90412843903667,9.15151268811784,7.33131053387142,9.41972128923796,5.83481882920071,9.5300785392754,9.32493411458866,8.73769985292391,6.34680013848587,12.0958375164792,9.79252453948071,5.12936569940507,7.13398883152918,7.77923773949782,4.05305676730262,7.52204248336466,9.46591947314736,9.6826047093828,13.40254280411,4.29899954236527,10.1663598264386,3.98956557840362,9.20461002279133,9.4134345313687,5.51853318389263,11.8012384233851,5.32132580410071
4.41001430914924,4.28211974118114,6.39291201414254,5.30101368613692,1e+08,8.7981933152493,5.69259974131679,4.4231601580736,11.6420811767354,8.77958896502029,10.9353475356124,5.87518335493271,8.49090986097837,7.48591982892264,8.00216461250972,8.64198130622773,7.86794811541686,10.413899429962,6.75125891180831,9.0772088841027,11.2805527997713,5.76172317259115,3.95737614949078,5.58845931635625,4.31427342065141,10.7831590481832,6.57619100703831,7.35369604659647,6.8227412889287,10.7611103802963,3.15197465792172,11.255404010562,4.55422360201127,5.24708278823948,6.08579378062831,4.9661404724487,3.02273229861107,2.29028676669521,11.614260283088,5.70357127865984,5.36904624884279,5.69014386032839,5.18210613504532,9.53057056099868,5.2495716357146,4.48310648617667,4.87640692350246,10.6205517073986,4.42198409115484,5.92071987650735,5.05671236514975,5.83708170892339,5.60586156231561,5.30447825029651,4.88001034014852,4.45963721459755,9.86019159287444,4.02215389254794,5.83485494872085,5.19943147274702,2.73369876567688,6.00409672272147,5.32780975855005,4.65984491986351,4.17702934385236,4.0450944492861,2.29754973523217,4.79846544662574,4.59504978282686,3.92840882508304,3.67657279530956,5.12799988623533,4.775694412687,6.16745225919311,5.4182825319969,4.46917654681408,5.04665625944167,6.65646546180033,3.86936958842146,4.23112726452241,3.91537943752842,5.25558988344184,4.95474133429982,5.64248085669447,5.88814940688377,5.46520479259997,5.5663515617709,4.76281196963276,3.67069132594028,5.91738584612731,11.5749422279929,4.8925122668055,5.58387045614515,7.27677220840642,5.25264905124413,3.40326000509125,3.32077924520687,5.36636783664985,4.97897330710774,6.16336984806634,6.14567844155312,6.91133473692164,6.71686262594116,5.34239317789474,8.05695076145578,6.06628079839532,5.30094689237969,6.2599803138796,5.50301462442439,6.35172943605884,9.91255666009309,11.5488614700728,12.2163434747194,6.97448761980609,10.7489146264313,4.07604829971252,6.58724636707755,5.82277844089212,10.4571098332063,10.5892170964866,14.1336611104309,6.62536625682604,6.92900225387741,5.86110781994196,12.2856706484143,12.145723739541,4.47654165313856,5.28317211840588,9.48817711701069,5.93023395398618,5.48795351444437,7.18536575675924,6.76387840029938,8.98740339945663,10.544386978679,4.48039681406416,7.00825276312562,5.56453033432625,13.6560763632852,4.91243486486639,5.4681006416099,8.97143157803732,9.18629833210358,6.12342069919844,6.59438077530843,6.38175766538774,6.96802206682747,5.03786754827303,5.38277425023541,11.9331480983826,5.315239894616,13.4404779084679,6.41230865576133,6.03421555583484,12.9880158777109,5.49789572461699,5.66523332746312,6.95339609557699,11.0898088484492,7.01777450645271,13.8746326571676,7.0072610653154,8.23279966399841,5.95927105300298,9.19746263979256,7.17607097603005,7.01497950773999,6.50379354064672,7.26944958793147,6.08283688769584,5.87770659914851,6.30103789033431,6.81929676592864,5.82092737178827,5.60986911886553,4.54201470852946,5.75475369402184,3.86579933503375,6.08794659845322,5.93721252920782,5.20609133592139,3.47223265448145,11.0052679954618,6.18746533874483,8.04354096269098,3.83840169675599,4.71222843031671,5.98641657496567,3.73306094845477,6.15535012102815,6.86962767210809,13.8783821883098,6.88420912650971,7.18088389435955,5.61516761468333,5.65012787546603,6.25728627829791,8.13069883995573,10.2836572564243,4.0989754292307
6.20285064490141,6.93697939758796,5.96184559907195,5.93794696720715,8.7981933152493,1e+08,10.4807496009847,5.86149962376,14.1820156990343,7.33407703238971,14.8874484134163,4.41630372039913,13.7481344895149,11.7600945647237,7.12617864326166,12.6094277378251,11.8202823261181,14.4983045650711,4.14497208354691,12.2533056168153,14.3965550701508,7.12791292090497,11.3246879820483,4.68522179942501,7.17312778230885,13.4664343422614,11.8983772355222,3.21049918142117,10.563418361499,14.7380276976749,10.3188852833706,15.1635318004438,11.8488181838424,12.2162760648942,13.2076714465025,11.3788883845172,8.71520653366918,8.12732997366673,14.4654133525091,12.4219115063796,11.605642229057,12.7090210369147,12.0765540003609,13.7214902068271,11.8783868680153,11.9814127000946,12.0881399637991,14.285876473011,11.1094501014951,12.6857780886879,12.4516984588989,13.0806583741042,12.5656881219275,11.7450615784484,12.2170941200278,11.5539738206768,14.0568299251121,11.0822517714615,7.97483045126649,12.4838742497981,6.98878331984149,6.34825396359213,12.4532799775687,11.8057571409206,11.4290240416886,10.7020549672091,9.94796243234279,11.3340751127351,11.6868182908371,11.6426912681363,11.0730682624202,12.4781847676138,11.4768357649868,5.19104097572545,12.7122901771461,11.7995814274617,12.2116213476631,12.4625341440675,11.1793205204909,11.2425993789865,8.30440673042866,12.0644241146811,12.2455268545912,12.9043432001416,12.7088056440327,12.2754786013917,12.7009079609925,11.1658127023131,7.98151902797331,11.7221928425698,14.9014625937813,11.9082020599307,12.3895306718317,12.2153390722601,12.2780274864886,11.0817029600752,9.56182058892604,5.85948226834737,12.1916592702102,13.3618952244838,12.7338171078414,13.3329962605196,6.66862307093471,11.8212732461368,7.40382017919844,12.9955356244508,8.96044695026631,12.6762076808143,11.994867092039,4.7089237052219,13.7261252205013,14.8169373988012,15.5788396114701,6.64422579875914,7.16822958796087,8.21040691473225,13.2427626199165,12.4410624029528,14.9440418277482,14.3947406076268,15.4569786442659,12.9851778920921,13.3502278766424,12.8213084630378,14.3174617297698,15.3546738234659,7.09440611979981,11.6923456596204,14.0645189744245,13.0032198232426,12.4940893382976,13.6593293682811,4.32831149566805,13.0115753943488,13.9326113825703,8.09180767989486,13.5258207338243,12.2203582699949,15.4363474899876,6.57726677417768,12.3161252810963,13.48435185403,14.1165622005092,12.4728708753434,13.1190755227653,12.8527370256038,13.4548922021564,8.98423604514909,12.3855560143543,15.3089351396624,11.782450506889,14.5385607192896,6.41485851938902,5.01258334514561,15.5392527923231,11.9709323274398,12.2252573849894,4.46301426365227,14.9776652178229,3.86180230153795,14.8972546108152,13.9096634551119,14.7160572867576,8.43075652987575,2.6227812773717,4.32018111818765,13.8612572616191,12.8725013042727,13.3439284097146,12.9356091502992,12.0844622881318,12.9342376901104,12.7459195482072,11.5240805501849,12.7863846818248,9.67674998685749,12.142228732603,9.12368366459933,12.9788999690196,12.8193690473339,11.5973799238209,9.85224860361498,14.5327003071001,12.6862343356798,3.19847998973448,10.752720637444,11.0710678161194,5.51443207247151,10.9601371388909,12.9121866003113,12.256781589765,14.9405738405197,3.9722363339662,13.4377990284055,7.46563726400233,12.1820960273205,12.223796978616,2.7094717054992,14.8333538963528,9.5490944645265
6.52625995255337,6.45397824895026,7.78510713595615,7.37663826065423,5.69259974131679,10.4807496009847,1e+08,6.54228176541903,9.94198981757391,6.58075962099866,8.39112045625155,7.90750783759038,6.42254592472787,7.63295474777974,7.28189291452944,6.66442768027545,6.9995991243092,7.96078680255792,8.30175662068062,8.09667048853864,7.10332078449702,8.29153455756838,5.45095845095954,7.801528842809,6.16501946152717,7.5907128117493,6.01185608801665,8.11751223156215,6.5435218818098,9.01637584451244,5.13172173696448,8.48816422214595,6.32565083080224,4.86815779910569,5.97849368700335,6.25817187385677,7.19228058839301,5.9515807825081,7.57075709706337,7.61854664604871,7.37219390912452,6.52946044205866,7.41159176232861,6.9212936888728,4.17018347081725,6.55231444255485,5.94228623618555,6.86767463224282,5.93147780939665,5.85213503207642,6.22271172817553,6.09557667036259,7.0777257060981,6.61162150125794,5.70676157360639,7.25598922609125,6.66568210238898,6.76907708588235,6.35222532952366,5.92337806262425,6.50981257233926,8.50013513382944,5.08864491979915,6.93686153463449,6.60664300766169,6.23373762107541,6.62744446369454,6.40842951568702,6.36458668500097,5.65447751137187,5.56308797634394,5.66220712476157,7.56535248316772,9.18463193185524,5.90205885461117,5.00628017936731,5.01774187754668,6.17221755185082,6.03285651939177,6.85660289002737,5.47766669416542,6.65778996678892,5.24081086216526,6.43524818009903,5.32825355881254,7.6841677641359,6.2246135105604,8.03251480797631,5.31059112570239,5.22135032801894,8.0633561138181,6.86082000977987,6.77080427776171,5.74806244300267,4.89801448862132,6.39820533207937,6.0844105448553,7.59291302920124,5.26988293401539,6.63426527107137,7.56073162005806,6.96683007299039,6.76887926438272,6.33924150253069,7.95673671821114,7.01728684706902,5.6063321247541,6.23769781920136,6.93589363972383,8.70549978068736,9.15845171058186,8.17757501779947,11.0494743327801,7.48019856526482,11.4381669133375,6.62408571251064,6.96155146245797,4.94143187468867,8.06642745316121,8.05668728969847,12.7629972054873,7.49249866456106,6.43565822372162,6.98477843155737,9.75347142997219,9.12473943670831,6.5324970179183,4.82459516491006,8.80221378881428,6.7115790262328,6.26596520835494,7.38985159843857,9.06345326106563,8.61815237088167,6.44407280937349,7.20237663247753,6.5136381318833,5.49616457408554,11.9577250177873,7.46416148076622,7.25605765964503,6.75095336989914,7.47740382151807,6.73153565704536,7.54461692574934,6.65348321307328,7.76505304845326,5.68993782691751,6.60981206128249,8.47487832970383,7.70798234326072,11.2096380798831,9.88841458226423,8.11089006271962,10.2236100707822,7.03333344773031,7.10859528615944,8.36771868849891,8.39140574184613,9.46598368438625,11.2039785176827,7.55956394449263,8.24634521741428,6.37630116222509,10.5581480871755,8.25615892113314,7.410432133446,5.68417531658668,9.17624721021081,7.16086656219289,8.34088317943466,7.39321565944967,6.79583677247523,8.00037469975999,6.19195407857835,6.78528200291791,6.4554012811591,6.44386304889311,7.19915208093578,7.78436078188775,7.61917585854324,5.66183509721978,7.26659873040961,7.43235340443924,9.75284581479931,5.46351821886593,6.415513417772,7.07063786979273,5.88551133560051,6.66352788623445,6.94053664499304,11.1941584475888,8.92426032274491,8.75859913216938,7.8080940518311,7.37779810298616,7.99247518089392,10.4117672235191,8.6616262103979,6.86139284213094
1.81887074671438,2.86285190697428,3.79681183877153,2.66736405984787,4.4231601580736,5.86149962376,6.54228176541903,1e+08,12.8812803586884,6.13285557660224,12.2925679570182,2.41700605508334,10.2734553537194,9.67113622284967,5.66522552365468,9.95466278593559,8.10231449069092,11.8824084365483,3.65400404932523,10.2483842696717,11.8813319966297,4.33265469288136,6.66112955658794,2.28889316626899,2.22219132111742,11.5010909134622,8.71897991096155,3.70222541209537,6.86695156837153,12.4502910470853,6.01342248865122,13.0169600938621,8.28345306804901,8.18081950222419,9.32049782032004,8.16306459176864,4.54147454539687,3.79287221582466,12.0595750138332,9.30348121613635,8.69070847997675,9.17875779745973,8.8706096208496,10.9390911475327,7.73378292966711,8.13083189145121,8.44650702433884,11.7633290090647,7.70088962175707,8.85396804160584,8.68130466604901,9.26528011554928,9.19407077261697,8.61662817311274,8.42295320960604,8.11364048690286,11.4517214693594,7.68751819460564,3.62169363994155,8.66105010366308,2.38905965899063,4.00847713192681,8.4740332207622,8.43932176335039,7.90273058608697,7.41208014769778,5.95122718492097,8.1133491252804,8.2165833278017,7.63718845085165,7.34738447567463,8.58906035946141,8.37162943258481,4.70819950626879,8.93847585338328,7.5770947862964,8.06694444587564,9.33368339438366,7.57535604392132,7.77540208454397,3.82407598882399,8.78257925709278,8.22214723691481,9.33143702816606,8.85765535230224,9.04330364607729,9.08866013146966,8.29103517505121,3.05325446204612,8.40285594027074,12.7931365078873,8.40149047413787,9.01189959697725,9.41235262926514,7.99336728768963,7.37432323596601,5.30456084313916,2.45945967582851,8.02696830343594,9.54954383000409,9.35761098183186,9.87259625032116,3.71873354579479,8.37898766193565,5.82963593525225,9.21826351053083,4.12430162802483,9.16020952249502,8.72387210308245,3.52868279668076,11.7537112789344,12.4027814412984,13.2512439228217,4.0712660166732,9.12919729951259,3.6456504105196,9.70580338355994,8.41706915558026,12.1525262174015,12.0622168426236,14.2406326903598,9.84728131851452,9.62434094962704,9.16586898348691,13.0094411592891,13.3050818087394,2.76878353901917,7.65814274205641,11.5439267761966,9.17318896928046,8.61498167445177,10.1551926479358,3.66658194555029,10.8831552768687,11.2388196260501,4.55974073600958,9.72841746956889,8.50480389154473,13.9745697800756,3.2796582671614,8.73522984810004,10.1401548892196,11.2350523028092,9.04229879182351,9.76559518586241,9.33387045743759,10.1320076871382,4.07390330551201,8.69437878485826,13.2095821581815,8.50991368097243,13.4797518707533,5.33449781494951,3.00921733186034,13.771922677185,8.68990268071339,8.8618919087443,3.88161772575694,12.3440290540439,4.24172712852948,13.5769032421338,10.214444615015,11.1854736416246,5.25105633472942,6.50453076577509,4.61223846077291,10.2502593335613,8.98734150620478,10.5503383285755,9.28571399052885,9.00231573551606,9.55722115674276,9.59369505009617,8.82827848389278,8.74051344457628,6.786723288536,8.82519085992593,5.03485504912834,9.35241853170452,9.32699271801302,8.38815315408673,5.22003585976858,11.8540715853142,9.29593847286239,5.46076610955903,6.43128485818977,7.72640613805673,2.67744048682116,6.74512513161089,9.21675153713449,9.39615606524078,13.6826969323113,4.34162368121741,10.3551484782238,4.44644491629666,9.01256121931006,9.41258932030325,5.61065228943803,12.3149138154685,5.61663290890667
12.942253972507,13.2729036039414,14.0397230694232,12.343807723404,11.6420811767354,14.1820156990343,9.94198981757391,12.8812803586884,1e+08,12.879414524027,5.00780776446875,13.5674827127496,6.67895806259685,6.218284937774,13.1726171263204,4.56731100018326,13.1714681590238,4.73300477539334,13.7980813144816,4.2363340698049,8.4453820228868,12.4832703818096,10.2062240382319,13.3890447385839,12.1572115166264,5.11100234372792,7.4527628708886,13.323883958576,13.3979298324124,3.76573726447223,10.8373798823228,6.59807835423402,9.42265537760446,9.07415823115813,8.89541217670977,8.52899941164399,13.108279368474,12.4123189132794,9.91089749519594,8.95848496547011,8.89109067435691,8.49699957625753,9.29821224203666,9.52372445005792,9.46340688431919,10.1302494247735,9.05848394524211,6.75043142951865,9.35345430645877,10.4107065077022,9.39384805213641,8.86653211158013,8.68758264885598,8.25988164677412,9.13436431452137,9.99045471585129,5.70516068531595,9.76400507645981,12.8179127868384,9.14455086449129,12.5619140904582,13.3397789322726,9.12339367265318,9.73298247554748,9.78175812666961,9.72456818626375,11.9700021062372,8.85195370163326,9.24020130417805,9.84395962519091,9.56176689933293,9.09077515641278,9.71693445547331,12.8768274966036,9.02716694471618,10.0455800015599,9.64013617942994,7.66483409737359,9.68283825286668,9.87804843181197,12.0567190502171,8.93569136260923,9.3976229416763,9.23478383054485,8.92764944012409,9.51815152978116,8.73603598692344,10.3343327817554,12.3403407221075,8.23221424225905,6.21348007886303,9.3725408054843,8.69963732059834,6.74006945482998,9.9283902396399,10.0197675431116,11.3773783270631,13.149997532893,10.078745683714,9.08815924693831,10.0616437147615,9.16690208935021,13.2857934443141,9.85775906179116,13.7357492750109,10.0921258681584,12.3993842404004,9.06189925537772,9.26440495279773,13.5347494260311,4.76752668127971,9.03042280822883,13.069956429431,12.7316720688589,12.2670008043992,13.1603567873834,9.4093521713642,9.43953905610287,5.69407545297621,7.10110210846666,11.1376291325303,9.07119259827739,9.31095653466339,9.90733277173092,8.33708490087151,7.88810802342873,12.9131960168792,10.1999436494608,5.86319224824547,9.92833232835741,10.4521347714323,9.18527346270099,14.0714361567832,6.58091798565448,9.5938595395121,12.0097527690978,9.38213174299915,9.10881405836654,9.95069325771265,12.9334529268816,10.411921438167,10.93710813758,5.45107539901001,9.13254798089528,9.8647885766604,9.46321946299927,9.60788433332102,12.430105926652,10.2043486042122,6.51839162295886,10.5389633541745,9.72048679595823,13.7216191875151,13.6135293543473,9.08088338491142,9.75631121623117,9.99816048102943,13.5447038952917,9.82003262990125,14.2822378913982,11.8726762978666,9.63067042413331,9.84560010309623,12.3781365819773,14.4502504489837,13.2345578023995,9.27883410875832,9.8601627282331,9.76092530827605,9.70482517981322,10.6341450065209,9.59360293343502,7.98996975504401,9.64653041919916,10.3080312494177,10.7696035140226,9.16808237605788,12.5122640392601,9.93299129918877,9.98723056512592,10.6188658195467,12.1945847119197,8.21243522543854,10.6591119614569,13.3720727280485,11.284824023573,9.51913604651588,13.3260352773324,11.5980046525955,9.72486067656667,7.78556014106869,11.5006938131529,13.2175733313943,9.9688431348668,12.7031857328142,9.75664616971332,9.10272247059555,14.0102839445004,4.61808033815077,11.8760408666547
6.16967809773579,6.44039732089091,5.33936512474887,6.76985579373734,8.77958896502029,7.33407703238971,6.58075962099866,6.13285557660224,12.879414524027,1e+08,11.7123946170965,6.12855155593826,10.8716606249618,11.4628380081163,3.97551727445112,10.6379250257894,8.53392980042987,11.4177706959148,5.8792294812995,11.3048761597518,9.7295359553971,8.48814692310394,9.53545352601252,6.1685745623964,6.46450137577235,10.3299973287818,10.1336607099952,5.19098707298372,7.58967818900561,12.7884725035996,9.37984829056502,11.7846624169914,11.1407147887857,10.1294031961111,11.2313300478447,10.8682132418549,8.99393696786459,8.09185598187738,9.3690960651614,12.0820266167213,11.612382089899,11.5310563925443,11.7979775854767,10.0785261439946,9.50441739542934,11.0165166252532,10.9458765193021,10.2785862023888,10.3477720200096,10.4524971883403,11.1680914317768,11.3453945503016,11.8298372186834,11.2842417479427,10.8505799439744,11.3419961247158,10.532267442755,11.0593605184407,6.0786461893209,11.0277773017463,7.71365669883692,7.5637077798109,10.4415977340333,11.3752959479876,11.0408677341625,10.3525662903853,9.93484363796517,10.9240546004491,11.1359851006664,10.6074627239229,10.3603030513831,10.9237632258584,11.581154221961,7.99910669402871,11.1539102746465,9.98162520265884,10.1991637185279,10.8284311154271,10.6486860426361,11.0985979777261,7.31220958449678,11.3305019462507,10.4390400061731,11.5225144402206,10.6350802633212,11.9944102298109,11.3095644600377,11.6577885628479,6.90064848570721,10.0295674377102,11.0101891003504,11.3393364666563,11.5240174474298,10.0829152883685,9.9531574116944,10.7632692102116,9.3374185227543,6.3254998802747,10.257330375608,11.7368089477111,11.9157620073382,11.7577774495495,4.7525935009437,10.7082485291208,5.26721610060871,11.6621223257854,6.62445618037504,11.0333331997666,11.4678146328321,7.05494167571205,12.8230438100961,10.7276248426656,12.8374644498564,6.07084448450605,10.099420418814,7.7354479458156,11.7130695650724,10.1108995471546,12.1041106787311,11.3349654573982,13.8268902221189,12.0943886281134,11.3117430842551,11.6659176911441,11.5204645679149,11.8416791384562,6.9600706599654,9.68300221724791,12.5133995468373,11.5101625748234,10.9531301778074,12.0977215653819,6.96447970109132,12.1152090658062,9.09173883060819,8.73236424260985,11.3454398338087,10.5916260672162,13.5164989659717,7.45236087276032,11.5613514127702,10.2721690803066,11.9002328928942,11.3199151743104,12.1340593232281,11.3891927078278,12.3466911180534,6.956570647979,11.2044188803828,11.5861662844399,11.6226284973371,12.2297909146776,9.32388345152706,6.44702946737202,12.2581112880296,11.4652150860124,11.4536389177167,6.24023910016184,11.2278840176753,7.25589162690914,11.6704530328802,12.3359596179576,12.7984263002037,6.32615058592926,7.5654132915359,6.17305647875142,12.3200757466055,10.5502690762653,13.2164746926735,11.7995017285272,12.0935122581127,11.9827257099041,11.4909274212552,11.8103666808568,10.9902598480129,9.89273362210539,11.1256971344854,8.92908926781911,11.8517301823383,12.1754425514565,11.5199613427526,8.61004899715896,10.2023795942615,11.7116777174774,7.5736273649375,9.40276303608966,10.7542343995372,5.44865857828766,9.81015516284401,11.405646074138,11.1721943889878,11.7748023051661,7.20164547095951,12.879008763399,7.86471856985407,11.7550946879806,12.1769689337869,7.9747765793954,12.8056032727769,9.45912217243044
12.3343931993099,12.5095397159915,12.9540682435768,11.6905485335474,10.9353475356124,14.8874484134163,8.39112045625155,12.2925679570182,5.00780776446875,11.7123946170965,1e+08,13.2936773713638,4.72512952374924,7.58887656250334,11.864699234328,4.6770189104262,11.3647291593672,1.54539707897183,13.6517268725663,5.38403893426702,6.81329432054999,12.2820948331916,8.32717456811462,12.9898641124463,11.0155442955364,4.06470543521429,6.82954294591434,13.4033496965214,11.682254522441,3.16996938864457,10.0488073087511,5.30123828964535,8.712408392608,7.51268293713406,7.12078547963557,8.63271712582899,12.1468268522376,11.8123842670564,7.60849779874787,8.4749516088924,8.98817875313167,7.52564568216751,8.77069622742627,8.03576989557691,8.0232823723091,8.79492721886363,8.24771567544189,5.39025259550092,8.92475555479073,9.04626166932699,8.12905344099537,7.49470206991002,7.86249772854283,8.25005056932654,8.06407377538481,9.30022062331061,3.67613039540472,9.46428257376255,11.3953858125509,7.83194481049281,12.0763184396989,12.860456674869,7.54199660661103,9.3040519176634,9.32336571299311,9.3175256362077,11.0502097867429,8.74687109015545,8.85050935271683,8.84776496962587,9.07877721315252,7.79517582930612,9.36677007383731,12.6151445394404,7.81830060333925,8.68538468354494,8.02066800697673,7.38605879751323,9.26787084761958,9.28326042352768,10.9860770134176,8.47104735931741,7.93388646999226,8.21950391325193,7.33606075303995,8.84982312245543,7.55359319115584,10.1531289801769,11.3438598810325,7.77260234539869,5.03512005182271,8.54000352897918,7.87340758092237,6.61885906596115,8.03892325921251,9.46752482864634,10.3798359989944,12.4728393897074,8.34843454559097,7.43139383931077,9.2326703715012,7.90979208874757,12.4032861046917,9.19114581190607,12.4896016708858,8.69140037347807,10.8343601662512,8.13309299449904,8.96079437134909,13.5268031279832,6.26293181277712,7.42639726154394,11.6266494859525,11.843605965041,13.9421151909931,11.9866116786109,8.38801483252952,7.96749367028006,3.84199779872524,6.04669990651704,10.3314071470018,8.6510585313305,7.67060656591032,8.86507001749654,8.06388112345619,6.93799454811119,12.1702609985239,8.89179977899406,5.13774389679369,8.58596056306265,9.18008539385108,7.70824862457619,13.973730016464,7.11691530457681,7.62367868976873,11.6418351391761,7.57158096945315,8.1527372935767,9.13316927438972,12.2419148726657,9.44564268224356,9.57773082660732,4.43219433616035,8.70109805871665,9.13481929465705,8.42311002355824,8.58698305216077,10.8696430510477,9.07712636552066,5.35578480740722,9.92667073192719,8.91336786126102,14.0080175782067,13.3297915795828,8.62798171005692,9.4704020010772,9.40936953786296,13.4493890540819,8.32734000893777,14.438475622632,10.573548828589,7.93437978869852,8.10271655931978,11.0210300328959,15.0930258408259,13.2567628644174,7.84285648476214,8.17521287255272,9.36653618001826,8.45196526603703,10.11991413295,8.66545561382463,7.69735169446118,9.80903912314448,8.69218603675928,10.7599394145914,8.90342166175534,11.6819270203729,8.77886119062097,9.08157144517376,10.2762600180734,11.0033826930197,6.3238452642723,9.84170162179146,13.9438837089735,10.0229234891757,9.23487469515285,12.9070869922332,10.3239475052898,8.44854489024638,7.90908889174386,10.2310483147885,13.48287872187,9.19876167341434,11.9341679483255,9.30429651230738,9.16980528417571,14.6251791044888,3.87043396786732,10.7880146657917
2.23385951835552,3.16663023361418,4.41693843506375,3.22105835586891,5.87518335493271,4.41630372039913,7.90750783759038,2.41700605508334,13.5674827127496,6.12855155593826,13.2936773713638,1e+08,11.3443193018241,10.8050180954282,6.28646967587238,11.0437568063867,8.63937394146585,12.9518920280165,1.73776426218301,11.2634215430056,12.5927032597992,4.37808997813765,8.20617350931338,1.13680833896809,3.87331748589755,12.4490921258794,10.0268199966318,2.6135428388616,7.26810255885999,13.4221889763031,7.35680378132344,13.8169779314833,9.75314521096075,9.55946341785199,10.6908201032458,9.55567192760477,5.69910128318986,4.8690501694476,12.5906614533236,10.6668564405817,10.0924249005537,10.6204150248333,10.2049237019121,11.4974470520134,9.22459427333157,9.62925906434429,9.89635753094843,12.5461708880652,9.04368169864343,10.0499684177271,10.1626402293966,10.7344077378928,10.5947323212066,9.96581977772293,9.90515160046338,9.5719089183996,12.4173038851826,9.16833924344073,4.82421923325541,10.1613862632979,3.80314225144696,3.43812652111035,9.95721341511274,9.82082251554994,9.35434559737196,8.81470332732586,7.31971345104866,9.53344772717842,9.68313675156186,9.24135014341096,8.78735894421537,10.0716838847453,9.73830470691121,4.34259588813414,10.3446929862232,8.89685870407459,9.46538213438066,10.5043785403802,9.03932034689257,9.32403541213417,4.7955446985263,10.1790689349616,9.60000842040566,10.6300699120651,10.3893529876328,10.4841585979517,10.4955249241922,9.5955950190554,4.54394962925084,9.60535665206806,13.6058587764572,9.95710028114913,10.4706469618951,10.5568986921234,9.36698256557676,8.7952041915623,6.81224350811669,2.37085347227716,9.50960955932509,10.8743682892713,10.7547536401143,11.2371696573072,4.14457540628613,9.65009047563967,6.2279448955357,10.6401005060515,5.67244753980571,10.4386933647446,10.1429183128769,2.99188033812631,12.6401814133268,13.0507319721236,13.419278677705,4.48345199665347,9.39155451590229,5.04720735672561,10.9178693561823,9.73143502985704,13.0261587915956,13.0031544503293,14.6909230284143,11.1689523857249,10.8865714421813,10.5812107137955,13.5646555308786,13.9486475582942,3.55967175384388,9.08827885336312,12.7818525974325,10.4934325344274,9.93832883848149,11.4680865087891,2.79776608774769,11.9544386362047,12.0512155890696,5.64903166679446,10.9847977583839,9.83853431820827,14.5561243584816,4.12478013746802,10.1364551309466,10.8919767715662,12.301069418955,10.415011893746,11.0327900399715,10.6949291036606,11.4708478072323,5.62750641044732,10.1647157495229,14.1667249652095,9.87372141535141,14.1208249204682,4.73824258635565,2.81883220271638,14.1633216370566,10.0411835829675,10.1990271512768,3.07900311913568,12.8725432088009,3.22440811248452,13.9743969429327,11.5650179547109,12.3412183069649,6.47839310037311,5.1692903561913,3.56452028985469,11.6180025998746,10.3352019476752,11.7182822876667,10.7466561612868,10.3845321594545,10.9009045054303,10.8954472507386,10.1182395002286,10.0744412136601,7.94308553762271,10.154170542677,6.08901539828222,10.7945918730923,10.6631014283993,9.74694356114899,6.64401077783013,12.6005522896272,10.5646848355475,4.70614274405679,7.71186786322836,8.93913959535698,2.65149640923193,8.20975437628403,10.5049205905223,10.5147077774452,14.1287220898369,3.71386229948722,11.6036936131843,4.87805461602251,10.3900430558666,10.6859721426418,4.5716004842051,13.3319916189286,6.94699354914476
10.0262667011252,10.0349293073735,11.782980284329,10.1965643153445,8.49090986097837,13.7481344895149,6.42254592472787,10.2734553537194,6.67895806259685,10.8716606249618,4.72512952374924,11.3443193018241,1e+08,6.97135502060031,11.3251605782411,3.66796137196652,8.2577752232864,4.84303086074841,11.8011191717118,5.92929161236869,5.89857286129776,9.69774393849764,6.39349857402983,11.1878813974209,9.26537785835502,6.36636539907851,5.05652720099875,11.873112308719,8.60892203959054,4.84304795446304,6.6996440415972,6.22150995637177,6.74722932839475,4.34298923230891,4.46873163236195,6.8746343262353,9.72687610377292,8.96121396038008,6.99124992325534,7.17699451773183,7.82393571693724,5.69623055557101,7.25643117365731,5.3570652110195,4.86308885358685,6.81315626636407,6.08934442573942,4.42946687629165,6.7068117814564,5.82508301085042,6.040978882287,5.12765078421196,6.38937272291796,6.69978861050466,5.64845544657769,7.72617969887851,4.11975249620005,7.68203669603986,9.13329483676639,5.59364354498846,9.70399169085307,10.5738079974434,4.82470703103835,7.25124793232495,7.32101295370016,7.60877427231633,8.70009205367098,7.27782538562126,6.86628646658548,6.48627322836136,6.72222305159038,5.25211299264066,7.87316357121664,11.5363978766142,5.28829686069377,5.32825463329359,4.80547008399755,4.87215949335572,7.0708666256576,7.77270647361095,8.11388005300854,6.47946176425791,4.86727337575392,5.88251478957001,4.85952641753356,7.60589769017753,5.45593836557917,8.75615616019548,8.5503088286942,5.13534734399218,5.95170196414308,7.0409765678404,6.20205994731653,5.28479860109908,4.67456443833325,7.38927919345638,7.83610962627858,10.4436597391237,5.38900902684025,5.08612988080347,7.48875666652652,6.13377889186065,10.4842301211546,6.84866145394677,11.3585495159715,6.72967859892741,8.4430751693399,5.79467446791704,7.43038142198981,11.9424857595831,6.49275889990887,6.51894389312905,9.4357449608,10.4389547518334,13.7474635901523,9.52215479272235,6.18716266804571,4.967142616369,3.24539146100907,6.38406725159854,11.5257545684113,7.03168760555137,5.02720033279249,6.79394242339857,8.94950544989898,6.82955945642778,9.7745615126859,5.90245740529604,6.74911016087323,6.20879593167918,6.55534949463713,6.12962291283104,12.3423254881425,6.87248220749832,6.48810928220269,9.45081296607564,4.95635255345826,5.60519986619004,10.5797986253748,10.5377570013856,7.5580613234805,6.103426797497,3.58768439309869,6.67714408988119,7.25906413210231,6.24572775759804,6.99085779766801,8.38612120553103,7.05423911768882,6.79057267449931,8.37617908278688,11.0641010686008,11.9209799546541,11.7389258653668,7.89428039121673,7.62083327611479,7.43601263605756,11.7858584685137,6.29665412208541,12.8760237822329,11.253863559256,6.35448645512276,6.38507330239591,9.85093010852359,13.7849666668348,11.7932517565273,6.07450304404788,5.32651476134193,8.390764841433,6.7410903514871,8.73420849269264,6.97636224599694,6.04842524762249,8.77558378113038,6.06092457925428,8.79628386927235,6.83149230623612,8.76537273204876,6.84216711995691,7.3141248629423,8.52125891066668,8.23044997484079,5.21410152642506,7.68179633759576,13.0178035372569,7.06333233284094,7.53753496036308,10.86608795535,7.60142986446378,6.02431306112347,6.01656856534283,11.3445514027816,12.1862666057452,7.99596472647502,9.89608230997139,7.79481638106245,8.08007812036832,13.5351055627755,4.76360860580115,8.71078142333038
9.89141198291412,10.1736972756779,10.997158403125,9.67668223778465,7.48591982892264,11.7600945647237,7.63295474777974,9.67113622284967,6.218284937774,11.4628380081163,7.58887656250334,10.8050180954282,6.97135502060031,1e+08,10.8559188127131,4.68268166213404,11.8967034697231,6.57397859820693,11.2798128158333,4.36157915531882,10.3151395554755,10.2132014522516,7.21152477834434,10.4997885852757,9.21177528223607,7.44696414053644,3.65067363107083,10.8910950102167,11.5327201847005,6.60098606503021,7.35665432071608,8.43568683103665,5.13836168202622,6.38620242325739,6.37109382967797,3.38027929875225,9.6143275065051,8.70566403461021,11.4161685479113,4.80652290470277,3.72438987730442,4.79052052518501,5.04028668899241,9.59119107500042,6.46415477252096,6.44812310591976,4.84001388279654,8.38390153315427,4.38729669551897,7.44418605796555,5.68267664068767,5.85036195832486,4.86756971521098,3.23889746863604,5.4310028893296,5.73513387696726,7.13346303007623,4.89592923794964,10.5348216628642,5.58682029033402,8.90515716297665,11.0156209635593,5.99758615688096,5.33935960813478,4.92854810394681,4.52519903675646,7.73270294700284,3.63221684839308,4.57121804113619,5.68678225058204,4.98101227760977,5.61698469014384,5.21730324088736,9.89461838801286,5.78226239213586,7.07714598729155,6.71066539500267,4.08713048099846,4.87761307024201,5.16555988912185,9.36466179165474,4.71861625124408,6.41570892194986,5.62590202580828,5.91986165757688,5.32705780043712,5.25489515634499,5.65107829710652,9.21962645418196,4.48446795391559,8.53713730407184,5.07441628868074,4.72186502067753,3.61304052542186,7.48549997782224,5.74928206522874,8.02500361496356,10.4789158446508,7.05755123377816,6.77032748059136,6.36658683364268,6.36390026216326,10.8994381688332,5.66802324002052,11.4363646267179,7.07500382900135,9.90867611309134,5.68418053191808,4.91540099567021,10.6178224138923,5.21390593765536,10.5449102310862,13.9053276448242,10.7146878495326,10.0747734662211,9.8829633055857,6.72268676050315,6.78498272827216,7.85736086008587,7.68167890490505,13.7081342213083,5.29785191962119,7.22652266659204,6.45833381091878,9.90769256978202,9.92331535944374,9.94518543679139,7.00481655196682,5.10345241248363,7.00389989683905,7.21565572710555,6.82648204979433,11.2353372215316,4.64059121822883,9.95665730774993,8.67280023469399,7.45698427110716,5.66577493265394,12.8076551563501,9.72413345282624,6.69177386642997,10.4604062126022,5.71346441497704,5.40542898905462,6.80162700162606,6.24109520099497,6.61567454903784,9.88654203325574,6.19171435553945,8.31380216010156,6.48238351342894,12.157854690159,10.8470628761459,10.6134107599752,11.7106670096297,5.61639042185096,6.1269229007316,10.9041752206223,10.8602584559533,11.3296487964006,14.1266690605151,7.27195282698939,8.4926023743797,9.2260237864236,12.0597204567482,10.7139507013198,6.74354131053463,7.42471629488866,6.65233727203934,6.38804415788748,6.53855917125816,6.15868814928292,4.3686088455057,4.93996145382329,7.4690356411011,6.3178569078574,4.92344907599745,9.25501608673066,6.57204562146042,6.57414607658412,6.34654200288828,8.69151643770304,9.79360780968868,7.26150422418913,10.7292360990558,7.88391314206864,5.75552425620604,10.5876212024117,7.69937752585308,6.9344610695316,3.87394462005851,13.8128814137367,10.275261458149,7.0360754912952,10.0134967798899,5.23121271420222,4.80736121292571,11.1360895488355,6.10481500052593,8.61365850717588
6.46473654708822,6.90399374540414,3.27366599347148,5.68287466676491,8.00216461250972,7.12617864326166,7.28189291452944,5.66522552365468,13.1726171263204,3.97551727445112,11.864699234328,6.28646967587238,11.3251605782411,10.8559188127131,1e+08,10.7590938081194,10.0698512011438,11.5188395084003,6.57424320471534,10.7630741394078,11.3969266452518,8.37418177329767,8.93034721816247,5.93131064630631,5.46166448419835,10.357299166102,9.65840402090721,5.63697199065717,8.8968582071971,12.6667229981872,9.33030697239536,12.3754275821465,10.2372991073248,9.95526637964906,10.8430798938072,10.2473950407213,8.03429167763954,7.89675377651014,11.032271435048,10.8234987789354,10.4182751471879,10.6780876355031,10.5452321629179,11.4936122064296,9.57447468434258,9.82164848227306,10.2702100031009,11.3491101497364,9.6238482802262,10.6056562810391,10.2747371747961,10.8160481817303,10.7470688505925,10.512787381835,10.1817496633365,9.94273405922926,10.9923610418568,9.84946143910525,5.71081019847726,10.2711863592174,7.0070790003362,7.52022810736936,10.0354411980509,10.3824546283596,10.0714727941197,9.25622676749907,8.63661897937685,10.0468028067537,10.2847811319973,9.75755476961375,9.78548257117304,10.3040349248936,10.125562593824,6.22857183544154,10.6579681175505,9.96853166541077,9.94871825751552,10.795965630855,9.87965592803053,9.67254016026903,7.4512697978561,10.4102118525491,10.1285712055531,11.0467550208812,10.1505871147701,10.5171828752865,10.567041537033,10.0945148354029,6.74618298372171,10.1653146407863,11.905004969398,9.95095937703307,10.4347068414369,10.0054567216423,9.8414761463883,9.91650984248797,8.30631708986109,5.96311569562779,9.72068281151842,11.2331501367609,10.8693612612576,11.1202372433684,5.34314941120839,10.1747672000223,4.2712008331658,10.8245214870966,6.32163107230244,10.8115156993384,10.5949263387258,6.69442170769554,12.6680481050809,12.1289128279045,14.3306075141432,5.68670934216902,8.9901888139472,6.79442265710268,11.4874797247803,10.3363034989767,12.6385475300157,11.6043392510267,14.3401725780226,11.3536289181761,11.1194312800498,10.8653519229908,11.9881355830439,12.8370085342909,6.92147349786291,9.58046555656144,11.6482516101096,11.0264771858224,10.6461609733017,11.4672576415287,6.53023618321586,11.4248869115356,10.4051849730017,7.90870109556336,11.1553818240557,10.4517420424618,14.0978490995938,6.16713052495571,10.524528064586,11.7246563622156,11.925107248494,10.9257357548349,11.6070574508859,10.8487934364827,11.4943484225254,6.54091510250028,10.301118220379,11.9700614588662,10.269951725154,12.4380412632307,9.01093279937945,6.15078328042124,13.7182317890908,10.6662865229982,10.6440651402303,6.32765932839635,12.7906673115807,6.84164271463325,12.9461840807997,11.6333910794993,12.5685801778836,4.67276645554374,7.45879686080282,6.48514976799358,11.6809489292643,10.4834868934456,11.9568230128078,10.824024605158,10.5623334433427,11.096794570952,11.1219498809909,10.5755781374372,10.6670744315145,8.97990810585357,10.7530082622967,8.54348194899702,10.9180444202659,11.1417202534336,10.3952509160427,8.28409503664591,11.5538546177129,11.0721126693265,6.84275922070914,9.11087982199116,10.1317869238836,5.83853963543697,9.01159238321665,10.9472051791047,10.885754227584,12.9366747551637,6.64581680240581,11.7208292111493,7.09322098350588,10.6184269543013,11.1126858042901,7.15057270133645,12.665815648127,8.1356350536209
10.0790114134182,10.4323969287217,11.4967033723825,9.6761233091572,8.64198130622773,12.6094277378251,6.66442768027545,9.95466278593559,4.56731100018326,10.6379250257894,4.6770189104262,11.0437568063867,3.66796137196652,4.68268166213404,10.7590938081194,1e+08,10.4159201442335,4.33434354370453,11.5275048936896,2.90431695838433,7.31543827878574,9.77948031655764,7.22871026473294,10.8596758150748,9.08457797614159,4.91493730543972,4.2481087087954,11.0168898838297,10.4597717373408,3.84523370322343,7.47885354037897,7.03247561824576,6.78407187951389,5.71212744509767,5.93263703751096,6.02147559741249,10.2779266264224,9.36647773061202,8.68847502502529,6.91060865562916,6.83796435493118,5.8865110370172,7.12294977002012,7.62815334163475,5.81294350049806,7.39910850866489,6.25620170648305,5.47184342259286,6.41641152728519,7.47765551315554,6.62877842991505,6.14956202534571,6.37077489541608,5.85856469452692,6.21381424446632,7.6762898174587,4.737334892963,7.21299235142057,9.5124410612667,6.20424605019314,9.6151807431881,10.8155601657869,5.82469220638006,7.35257670687595,7.13261414375845,7.02119602091653,9.06225758157034,6.41444236384484,6.59058842837544,6.78444791732832,6.6667559437878,6.00108749408647,7.53862541628638,10.8480377057298,6.22307432196945,6.7806227555072,6.20978184569002,4.82150862419513,6.9009707216815,7.29580922329356,8.76665091567928,6.43242217450103,6.17494153398003,6.70115620726645,5.66165875572032,7.35603672513874,6.02203187656829,8.33485004530863,8.91647028353449,4.96365652785797,6.40627465183498,6.79588480957338,6.10163547028674,4.3534862938169,6.49141897332051,7.51357030460702,8.04697662637414,10.4600124009103,6.69416510905531,6.5044649775037,7.65811092402743,6.59067742487328,10.4168686361369,7.01113795673215,11.1710471505001,7.45247997602967,8.96589887274394,6.22026417674852,6.90487397431823,11.3256793783581,4.80582541399681,7.97495879757052,12.009195269243,9.98786133721602,11.4509595865369,9.89338996564911,7.09841310199955,6.16855625933087,4.54858278025465,6.31967229608349,11.690346446183,6.91085125460284,6.3601395833109,7.30191128770953,8.57331717438037,7.70558437796363,9.89099731571681,6.61760196878018,5.3560493583055,7.24909966627794,7.56469739096417,6.80130195437427,11.8077533787708,5.23400506098913,7.70145680710173,9.13298575329848,6.51552110194013,5.99458548368462,10.6545413335606,10.1298846822015,7.84409856705209,8.33284744141304,3.42052997526241,6.62077258100711,7.68583294341746,6.66473141827648,7.35397760201882,8.96151792113359,7.3736085684109,6.52522332588664,8.20970725774283,10.4356038098327,11.7392025560886,11.2401232373133,9.1942238992698,7.35481503369368,7.54074485683539,11.1556386311229,8.57771860052751,12.2595155965735,11.7916516477721,7.35449703808216,8.03373403421045,9.60366526626494,12.7342452386528,11.0570016909516,6.92510924466049,6.60410849459331,8.33289202936795,7.0886008525618,8.47067152536,7.20244679136393,5.53269707984731,7.80379171762228,7.41023089369842,8.16899883246341,6.61903366557213,9.29966029613911,7.32078175207277,7.69099321944075,8.30081098891349,8.9527796709976,6.77541890893669,8.23502572828538,11.6665152099822,7.97539281317484,7.12624415939086,10.5908257714959,8.34633603677439,6.97792109744805,5.27606691030439,11.6634791431783,11.1501500024562,8.21605966350912,9.87637066531112,7.41179074505544,7.29312657317208,12.3669807731977,4.16999611935622,8.8415011850634
7.2158133652109,6.54090572933952,9.45495010837308,9.30453324356494,7.86794811541686,11.8202823261181,6.9995991243092,8.10231449069092,13.1714681590238,8.53392980042987,11.3647291593672,8.63937394146585,8.2577752232864,11.8967034697231,10.0698512011438,10.4159201442335,1e+08,11.3328496191131,8.66549682893053,12.2649448526958,8.2959320590006,7.98551319813479,7.78254769399413,8.77558719630946,8.20411121129295,12.0309842115028,9.68486761601031,9.68752604814509,1.97214729317629,12.2042603751004,6.38706249144525,10.6151999881545,9.35036145136192,7.08261204792466,8.10832239276165,10.0828270969442,7.56968947116323,6.73570497420327,8.02788768455586,10.7585058141372,11.1627043615358,9.63448603542574,10.4023045163449,6.54621579269748,6.80509451252112,8.98742554644939,9.02376799029667,9.22578616668289,9.22618582478487,6.53336430589428,8.92798221142297,8.4494295314442,10.198109442792,10.4156594910322,8.51800705142447,10.0259089957068,9.85229737447802,10.0684776890099,6.78410968618324,8.66934108559963,7.95313486775083,7.9945708178719,7.81199210089624,9.50169687176614,9.55307517636843,9.92091104191044,8.52701447053129,10.4269124450615,9.60145180072977,8.58698468823086,8.74964210312074,8.4250082853436,10.5457498109082,10.8341866255961,8.35579750324426,6.33820066778702,6.97988400085709,9.05732676798661,9.15440859144293,10.3261321300421,5.95433395290877,9.57514277461667,7.34752771768001,8.76758887986147,8.21297065941263,10.8189088843257,9.09656394346976,10.8828005624172,6.3206280809151,8.50556371383659,10.5161638373704,10.1972955974906,9.94865986392782,9.96933623520211,6.30798427680279,8.99113974179023,8.14464867874365,8.02219670739924,7.16084395530202,8.48832939361365,10.1582570336794,9.72932323390251,7.69461288848364,9.04235335446764,9.47574141960417,9.32991134234177,6.42385003115389,8.88862716109999,10.4673093830947,9.91582303233507,12.5965975036622,8.9181300773505,6.77679042235466,9.15648149112747,14.596321633446,7.38821801079202,8.89413126540395,7.15664145395862,10.1709740007327,11.2024587259505,13.1529874695206,10.4184336288284,8.2542080013442,9.41092621592924,12.5054218123944,10.6505256831269,7.38359331835311,7.27906930917564,12.7985437765649,8.62820802658114,7.89927744155319,9.84014888014629,9.92776677595366,12.2495448208892,8.11377188723493,9.05846035861019,8.17930644068981,8.47619237426585,12.9130021758568,9.411918258717,9.74592070090014,4.93987918460879,10.6636124796588,9.53576533842713,9.79466915228473,9.22312023755109,10.2766689258711,6.50213400419858,9.33383260943431,11.9037524183328,10.621181204414,13.717525117022,9.96239735120765,9.39476599728603,10.2031402763018,10.1558400954825,9.74435398833434,9.62414019627786,7.47649017693799,10.3992482436734,11.4087114567869,9.67259341235567,9.1261770354528,9.28626068249126,11.760036665708,9.96681928121676,9.68622859005824,7.46769180216512,11.7596214737782,9.84184213327616,11.1146566110994,10.1198263282617,10.2165044503034,11.6525341045089,7.70879985530295,9.93536279846507,9.58306749980292,7.11383604477876,9.69123543780004,10.1113407613105,10.3405730572451,6.73573250010611,8.51761562684534,9.34395187667788,12.051957813682,6.98145835208382,10.0560981032685,8.12347062156663,7.54583363392509,8.67476478370494,10.2564869791037,11.9874995177394,10.9321379839449,11.1243161884896,8.80114560297322,10.7363730376721,11.4697228761277,12.0586449315202,11.9371964725814,8.96714470337605
11.9272361256966,12.093263456464,12.5569985794352,11.4418393837616,10.413899429962,14.4983045650711,7.96078680255792,11.8824084365483,4.73300477539334,11.4177706959148,1.54539707897183,12.9518920280165,4.84303086074841,6.57397859820693,11.5188395084003,4.33434354370453,11.3328496191131,1e+08,13.2839716665948,5.00972219207568,7.00400252318442,12.1632960373871,7.91017007744515,12.6086304701448,10.7153181339284,4.14297923814566,5.9450507380586,13.0390637282647,11.5625589879271,3.60616261009133,9.67313584851256,5.05599262163055,8.10354145640008,7.20800499529516,6.85205602716387,7.73898667859297,11.8350971974627,11.3633068299411,7.87156043953398,7.86727186766021,8.15836929500954,6.97404123826363,8.15863766675507,7.98287474364744,7.6117533175482,8.38680353902017,7.57728556479102,5.36331382336855,8.10985799689442,8.55423220006868,7.62233958685081,7.04382473444932,7.31801086187416,7.41337409612571,7.54119951781177,8.7311888441554,3.52436706785136,8.78385596848059,11.3030611798723,7.35751759666608,11.647042179453,12.6986663973336,7.15392233707486,8.64506344340887,8.5903596668629,8.50741454533312,10.5687839652788,7.86903168773637,8.14704413049166,8.31084509653749,8.36813498641368,7.34471882673856,8.74222503225104,12.2832855973447,7.35890569378753,8.34618488773138,7.72220355188961,6.5586852302605,8.53668859252181,8.65070565204196,10.8235846988932,7.85262316239052,7.61244897111709,7.62302811658493,6.96119635819092,8.29039361422947,7.04941862892414,9.47567772533804,11.0631038195996,7.00940853840395,4.80889007288156,7.97279098861079,7.33752068038792,5.58240031137149,7.88764432409151,8.85495881234106,10.2013249477235,12.1848797649412,8.10546854147533,7.25970628341802,8.70611965082236,7.5276556290635,12.0999968496863,8.47437595496348,12.2380297730318,8.36468504909695,10.6584745179459,7.504876905663,8.24286672057834,13.0709419045205,5.80432450959967,7.58022596136874,11.9724309119699,11.7218384355338,13.3770224174994,11.7367379857161,7.90821040224247,7.54575274411329,4.334878313064,5.66923664601205,10.9700268573757,7.97252867565547,7.50519275947741,8.38986515478778,7.95650476593565,6.99863735056488,11.8660659811202,8.5195455052404,4.40861549923088,8.21557583910002,8.74643501155122,7.45428958328632,13.5864802469966,6.50257578597903,7.50060921562582,11.2800197049232,7.44191873045716,7.58825045693397,9.78164176985545,11.9306598465087,8.97044487920272,9.63133801281637,4.22684919666172,7.97698044872293,8.66742970304625,7.96240996199495,8.20196160192082,10.7286464899112,8.50358125827239,5.02763731329339,9.38347817782528,9.34953902385802,13.6139353951598,12.8688531923888,8.93986105461844,8.81182931564176,8.80489691099025,13.0936872038241,8.45113861161017,13.9744553491838,11.129897500136,7.7011666864993,7.98079992759541,10.5286861996886,14.756629030192,12.8921248333395,7.53762696425043,7.93164248806946,8.90782934040451,8.04966710459572,9.56841067686184,8.18839999099322,6.92501526304654,9.00720301002482,8.36707612703191,10.0733684440225,8.09534325872016,11.4369989065305,8.37371301319811,8.64225263672355,9.64449287705367,10.5809938309408,6.5070888249716,9.36224936575032,13.5289383145574,9.65497204188491,8.65056334449616,12.5283043175773,9.87607934711664,8.12725206962529,7.05342817107192,10.7436598735358,13.034689295795,8.81582936307361,11.7422416283883,8.60635058525709,8.4325519461396,14.1469608807601,3.77433392227679,10.5868771428281
3.07336448775222,3.60496314534118,4.9412106300995,4.43211996333534,6.75125891180831,4.14497208354691,8.30175662068062,3.65400404932523,13.7980813144816,5.8792294812995,13.6517268725663,1.73776426218301,11.8011191717118,11.2798128158333,6.57424320471534,11.5275048936896,8.66549682893053,13.2839716665948,1e+08,11.8391777226831,12.5795878937035,5.19980073899163,8.97687098892149,2.00506791866425,5.10562987999639,12.8279494213099,10.5334570448921,2.57756471970939,7.29241938571062,13.9121802115383,7.99540499152697,13.8597690911729,10.3902910859202,10.082509807817,11.2664814946612,10.1125602152471,6.64137759173171,5.54398620543499,12.5069852659022,11.3377410210593,10.7576836652541,11.2708239979705,10.8485072275683,11.4154779945272,9.74193228962289,10.4390111764965,10.468224446864,12.6315108963365,9.55281043890595,10.4069670646695,10.7783796122321,11.3102905154398,11.2678205171844,10.563637080286,10.5031522325747,10.3354302251416,12.6395700773602,9.89708936634117,5.66554512651663,10.7928075104148,4.89904361846629,4.05859432924524,10.535342808212,10.3965704274283,10.0497202369137,9.42100704846997,8.04857315858317,10.1564446230444,10.3035133129643,9.95795107642718,9.37495424507715,10.7098202020809,10.4468738434204,5.05671627208821,10.9065678010674,9.38408903147052,10.0274910043188,10.8651727964277,9.65559197172298,10.1197183095552,5.58045277694145,10.7505525554482,10.1592368175856,11.1210116293092,10.987106470325,11.2551671601022,11.096636925543,10.2635357281616,5.47826718880831,9.9868514200887,13.6387342890892,10.7462302910867,11.1656907096717,10.8914913001455,9.93980681053552,9.49498915827905,7.95080306243824,3.37308022803997,10.1320263954423,11.518666334835,11.3811779526529,11.8374672198634,4.52439313931354,10.0975083077341,6.52236298670066,11.3318248844206,6.4969234390903,10.9020877045044,10.7670606031266,3.50942893523497,13.0585458797671,13.0510690669391,13.2688729733584,5.37307997190069,9.67143409307908,6.06382246934818,11.3340773655426,10.1702245702644,13.350731000798,13.2288945953336,14.9475721545471,11.6824369378028,11.4139309897876,11.2066409442759,13.6439692232799,13.9618591406001,4.46440701354007,9.66270175131841,13.3497379501112,11.0805061308681,10.4399301906052,12.1212611111283,3.39301536563307,12.4465606508065,12.0445871934955,6.64691069837458,11.5305703442905,10.3468098232342,14.7894501061788,5.25182480850952,10.8298286817677,11.0223511541067,12.7640559895539,10.9307265079314,11.6030728888138,11.2619319054775,12.1149775556432,6.52649606951674,10.7993441209037,14.320095487203,10.6129440709552,14.343226159209,5.1448941114797,3.31881381857866,14.0412426739909,10.6427231754447,10.7429738443825,3.49140517851727,12.7680496778813,3.35381267930391,14.0255988267089,12.2392423884181,12.7992680478242,7.00688488751973,4.81964852698846,3.40918196994811,12.2588329222192,10.8317169650272,12.3576953056359,11.464077057341,11.134652787064,11.5280551319193,11.4101859834114,10.7535136221804,10.6076980361923,8.43963612952951,10.617298735665,6.85205899467521,11.4816826346791,11.3478096136377,10.3839340138616,7.36055141793639,12.6538453742494,11.1025425087411,4.88994756597202,8.35348821689639,9.60650665229024,3.07221769269873,8.84410498494967,11.0416146076485,10.9459270989651,14.1941778819904,4.19082472893994,12.2708603632213,5.70517615279756,11.0529723664408,11.2937969318961,4.55205448991166,13.7731477589922,7.98354775283384
10.6170287195579,11.1202973858597,11.4935072334954,9.48293495769266,9.0772088841027,12.2533056168153,8.09667048853864,10.2483842696717,4.2363340698049,11.3048761597518,5.38403893426702,11.2634215430056,5.92929161236869,4.36157915531882,10.7630741394078,2.90431695838433,12.2649448526958,5.00972219207568,11.8391777226831,1e+08,9.29408453068218,10.2171997998251,7.82256238620632,10.984964970808,9.26166849644867,4.89204872364089,5.34742048117163,11.1658677911957,12.101492846849,4.07832028618556,8.6856842099655,8.20976367629656,7.24239458010187,7.27422668868626,7.30159402048146,6.40588906122921,10.603488469096,10.0757443385748,10.5779074856318,6.81091775094424,6.56802571519891,6.5258648418642,7.09960306777135,9.85187097286084,7.62029313426561,7.83665223307016,7.08552775887585,7.45881037454488,7.13223383756481,9.24140523291102,7.33615424972333,7.28721715145831,6.56612470665473,6.10021426107639,7.17152591176336,7.59837856564966,6.2448981982097,7.23663122384957,10.2752619652007,7.11595174156374,9.90172835751659,11.1875623362723,7.23594073137679,7.69728899208924,7.5304885011294,7.21840386480343,9.32832982801541,6.53255892658304,7.04192029330523,7.51923494228203,7.38261108474705,7.11481578222772,7.29902195278882,10.2127428759869,7.3562181754231,8.26713314332519,7.73716881168197,6.42378955028947,7.46183696096281,7.17059504536354,9.68652629006238,6.92092396854196,7.55610209131035,7.78417328591178,7.08464139269106,7.15263333049219,6.89743092830019,7.94828274743866,9.78569004236529,6.65170614158792,7.78860762570421,6.79710999629994,6.50912242028967,5.52711681112395,8.10983438406634,7.82413595217988,8.50460142875735,10.7327727950186,8.02399653271869,7.5731627612401,8.06648464432049,7.50567401827327,11.1026940761054,7.95665388040163,11.4503342666518,8.15280230196456,9.83949025370672,7.50761410322002,7.09885070332757,11.1914300434246,4.50090047841582,9.835217356644,13.8335871347565,10.1545961825649,10.4433362387644,10.4103784319359,8.14535526487198,7.90425060232649,6.22584875172485,7.26452278580737,11.9659674582404,7.42546738818464,7.8394671668144,7.97335694929144,8.97463729132643,9.17587514417034,10.4287597015632,8.1811877245951,4.5609864994027,8.23039691914179,8.76172805912085,7.61037852079465,11.7168329821409,4.98782577934205,9.68462550714595,9.2440554302054,7.98111400915365,7.34456304731631,10.9416209642902,10.0290222805183,8.24958617719451,10.6594781494564,4.83474588003108,7.4712208307434,8.37582338246796,7.7053950264034,7.95412686836984,9.8293748394401,8.11066466885755,7.55569826200126,8.12311616575453,10.2168493475978,11.6980411568275,11.2468201424675,10.6749126267357,7.7307332178791,8.03836211271175,11.281791722255,10.69700920267,12.0847467877193,12.6949621956335,8.10373209180201,9.10157873963606,9.71128453321313,12.573216451724,11.1312281616676,7.77662624863748,8.27638091634694,8.02927266380658,7.61541819493732,8.25819306743092,7.69330539791016,6.42169972037974,7.3585926066612,8.60093355090433,8.28797553654711,7.47828891620331,10.0734922895833,7.93671054995831,7.95881235281546,8.37893552966144,9.8604594005835,8.76373788492853,9.00538020042169,11.0936491552542,9.04519985619836,7.22955835772675,11.050387767945,9.20657714768594,8.01729259481371,6.17622850783202,12.387672633635,10.8125109792169,8.23780237032193,10.1047120791657,7.54389552068837,7.02890921672722,11.8138037161809,4.73373844794693,8.95075926055107
11.5351827475865,11.3790232929392,12.6465705929244,12.2482740166439,11.2805527997713,14.3965550701508,7.10332078449702,11.8813319966297,8.4453820228868,9.7295359553971,6.81329432054999,12.5927032597992,5.89857286129776,10.3151395554755,11.3969266452518,7.31543827878574,8.2959320590006,7.00400252318442,12.5795878937035,9.29408453068218,1e+08,12.0118516167268,9.87070563031335,12.6336424484869,11.411325265094,6.67294900755332,8.78113510557997,12.4632178392674,9.01351766730214,7.95869336760245,9.67142680710516,5.51739531566644,10.3096520568861,7.97583491063096,8.44718026661007,10.381313239715,12.0995915976669,11.1430307484244,3.37722566922033,11.0039852694394,11.4243059299761,9.69362158721361,11.0481973053504,4.93843067236741,7.93976411334118,10.3850746497361,9.76742683712951,2.97296937616934,10.214678057789,8.35448629700268,9.72537824210336,8.78851777585329,10.4045372384477,10.4856578305561,9.24653501168902,11.3226029175589,4.74532435651712,11.3028651540749,10.6025856894723,9.33127028239076,11.8990155788706,12.3524577607571,8.47313151629531,10.6702121055711,10.9307666386571,11.004941986532,11.7382193279898,10.7945855445053,10.4956587873026,10.0365908475115,10.1261144406759,9.08246043579188,11.4989558048445,13.6787350507453,8.89719824322576,8.59708718715937,8.38773745090196,8.47865436110948,10.5325236401235,11.4233276750204,10.1744527938772,10.0499260415983,8.54041999048322,9.45525909010186,8.36828769835546,11.4100991451932,9.29214090993187,12.1762497714993,10.4223490860255,8.50077535880875,4.00125382555622,10.8492278491536,10.1382957561993,7.81954180013944,8.02382859437873,10.7953762131437,11.0419150155556,12.0645535545717,8.77454036523106,9.05381690222983,10.885277897423,9.62530680751162,11.043021339113,10.1073362062261,11.7060522344627,10.2259792709695,10.1122504954113,9.2276871821695,10.9002991615301,13.330241591129,9.60744970257755,4.66077568681172,8.36420283034282,11.7661044327829,14.4377943009172,11.6419724636131,9.40726422065734,8.09053024759489,5.95230010152453,7.21270634358188,11.3156609644171,10.4595581561248,8.56823705858207,10.2853524343328,8.22183802703271,5.67239228887341,11.5501293169606,8.82861274498959,10.0453854075187,9.71252971070092,9.67703503974541,9.78758390841837,13.5924860943522,10.1705150546952,4.28075784571708,11.9942730236376,8.49145817103448,9.08896522300918,10.3695541145211,12.6647577824064,11.0093157090925,6.07017735801248,7.45597275986074,9.96300885616565,10.4341040915853,9.6639083222108,10.4920335317191,10.2805496505645,10.4885894868823,5.95376961618988,11.7715803669529,10.3106707512964,13.8854417199682,12.9727473572873,5.52473235220666,10.8895278929692,10.6666602360034,12.8370143627462,4.96824924266431,13.946662154449,9.09086275689803,10.0061334745535,9.30909521266453,11.13684714912,14.3005041176244,12.6792601224086,9.7856551364249,8.34103348206503,11.9667916004009,10.4991730367911,12.1890218280111,10.5719655197195,9.64190863666132,12.0968370534819,9.33875043999428,11.5272504474147,10.0386233537925,11.1800930961,10.4247378748715,11.06916075649,11.7180160804984,10.6043013994212,3.29865487678696,10.6147248396934,14.1429333442044,10.0530500602151,10.8769770486456,11.7746819969396,10.5245012189734,9.48976532750576,9.64322564199674,9.31307314626475,13.597751358827,11.4985833696807,12.1876892137927,11.3077448571014,11.6075223716887,14.7053330347667,8.03519395746764,11.7014459948161
4.13066291126146,4.91278620726324,6.81599954233288,4.17866547642177,5.76172317259115,7.12791292090497,8.29153455756838,4.33265469288136,12.4832703818096,8.48814692310394,12.2820948331916,4.37808997813765,9.69774393849764,10.2132014522516,8.37418177329767,9.77948031655764,7.98551319813479,12.1632960373871,5.19980073899163,10.2171997998251,12.0118516167268,1e+08,7.36994833273452,4.42085869347164,4.45165930697564,12.0287472742537,9.31993927045411,5.71285638861854,7.05652920257868,11.9390864257985,6.25515488758534,13.2064925869699,8.92528567893533,8.23177833441545,9.23364674733884,8.92946110291809,5.591577139073,5.11042729481855,12.2088070947269,9.63936425957267,9.41296892161716,9.38905345514512,9.2494305801219,10.4608594413747,8.10855964622439,8.53428677632587,8.86372742100443,11.8594071564279,8.50990797635641,8.99407210435708,9.15675635580369,9.43751606587883,9.42688322872788,9.1978240486287,8.78154303727473,8.69630746493488,11.5827694578468,8.36601564316121,4.21955087339964,9.06451169421448,4.44353864435517,2.22983231243139,8.73100524258881,8.9295191920141,8.55281218303427,8.48742489101802,6.9437189847453,9.07123484685819,8.78004319690596,8.24185864133411,8.11511382559408,8.85773394309756,8.90274264492572,5.64452626594421,9.15640961953252,7.6064218506335,8.20881747219844,9.5219765270635,8.29221560874056,8.61359646408073,4.31935669592907,9.1216412431605,8.24700911795701,9.54769927502114,9.16918116560885,9.47960316244425,9.32111841461353,8.99991558316725,4.51825611508602,8.86728846588644,13.1593771823661,9.02393260509711,9.27071701255235,10.2266522247063,7.94626716407419,8.0287572854843,5.56595562966717,3.31152185563814,8.21900232868632,9.25738510873181,9.79860219177375,10.0384243836972,5.62455832643672,8.98281359733059,7.80629436793667,9.41390865085091,5.28713174283284,9.52002003751555,9.45217806889271,5.50117473628002,11.4802807960587,12.279798747361,12.0576244757919,5.30218017583492,10.5848135942088,5.07789901257326,9.80708143074161,8.7146929591025,11.5335688101328,12.4233625355712,13.4409412571844,10.202202819169,9.44053171213181,9.4787176646669,13.3373131652755,13.1152108672224,4.34237305096672,8.10864171967923,11.9230789197298,9.24466714832938,8.85361573922416,10.1142780538166,5.52859041834389,11.0723333165031,11.8173112641094,5.42762929368929,9.45772117268596,8.83188171699685,13.2244460903755,5.17428679378117,9.12056148538298,9.63898055347829,10.9398369546582,9.47353586069156,10.0095060605401,9.57239225636086,10.1654645001309,4.85615792054293,9.26547714011445,13.7749647263578,9.17874148482302,13.6839419233815,4.74449818929694,5.70032284802082,13.0271230336322,9.24051808387274,9.34415528597465,5.55130626359351,11.720101545977,6.18206474802948,13.3499944303168,10.1518678997711,10.9552415172038,7.79176705645476,7.60611072981388,6.1952066622946,10.2217409687235,9.10801554380453,10.5706233555912,9.48433756192228,9.55595670822829,9.83887235068558,9.92992265419701,9.75613209418005,8.91710019568802,7.96148479889394,9.47777614184052,5.46022063222769,9.61894242545001,9.48450073949285,9.11234278538123,6.30283219827158,11.8784531282668,9.63637699827314,7.0824806198636,6.90647335207887,8.44123992344236,4.95233749719124,7.62267825939314,9.24990007127942,9.71021199495833,13.6649698380709,6.12351354682642,10.3624041085208,4.07140411272854,9.74778338528355,9.97239055049219,7.11531934870148,12.0560461166828,6.26117110260472
6.57229724975151,6.44885265008799,8.12948626856496,6.69572683675257,3.95737614949078,11.3246879820483,5.45095845095954,6.66112955658794,10.2062240382319,9.53545352601252,8.32717456811462,8.20617350931338,6.39349857402983,7.21152477834434,8.93034721816247,7.22871026473294,7.78254769399413,7.91017007744515,8.97687098892149,7.82256238620632,9.87070563031335,7.36994833273452,1e+08,7.72948813577549,5.40020919725176,9.07007178484507,5.78661887777464,9.58257794323046,7.31988954930456,8.71358513168299,4.26932981334366,9.55885964452949,4.33157964164097,4.04058154936172,4.43058215881639,4.97388653995249,5.1370145059157,5.21598833201339,10.1979353216475,5.06868071130184,5.36963664390615,4.5288198440576,4.74156568188329,8.61483400734861,4.63236659290506,3.81433644619709,4.27593106374628,9.09891303007982,4.77453966888508,5.63490681873019,4.08989933736817,4.50035759795026,4.56278852187776,5.00902195121296,4.1766323276409,4.23974970845264,7.99326147863752,4.44361881628422,6.73380602213984,4.20521476261603,5.58903835127491,7.73615156451215,4.19582068291636,4.70724800498108,4.45244253185863,4.68008927711629,4.12743561857393,4.82112557727083,4.53502514644561,3.7057832887649,4.04916916143575,4.15476931105868,4.87950304515448,7.974752760821,4.40601735694633,3.8077438783023,4.1247063278468,6.02093422250533,4.27448566917151,4.37412330298391,5.34015844430224,4.95952346984497,3.93066727765523,4.84433908138175,4.85770166420241,4.94272818067184,4.49165247077436,5.30073277885625,5.5926657465326,5.63948017977104,9.91877638212321,4.38026286930027,4.8361244580242,6.49247492210731,4.08412403304611,3.66204116784012,4.57602340622561,7.11300642036148,4.23638171976297,4.4413516539117,5.73492128875098,5.87860617673586,8.20118336648223,5.41094751304261,9.26388010315952,5.05151808794031,5.75468472570595,5.55867507612801,5.25508583488333,8.48484921158294,8.59606102611604,10.2216691552675,11.4532676230718,8.02376981331791,12.6178219468571,5.89275846195821,5.47157542414828,4.8274757516758,8.31834110436317,9.13567766578608,12.8382352098729,6.0454687876633,5.66300173921042,5.13235978117887,11.2592851336548,10.7275726469688,6.3804379414899,5.23143493739727,7.46408189841389,4.82649272286143,4.96428192361422,5.77391715299378,9.04998072300969,8.08812196168356,9.43433508421183,6.1550724653934,5.49053063626728,4.93658251027007,12.0790160011571,6.78067769717243,5.08980093663596,8.55324498209344,7.31607321558114,5.59933002271462,6.03557689316868,5.70471311210457,6.08621985145777,5.6047357892204,5.02211503476925,10.3282175309543,5.39382289425527,12.0431707942608,8.60949767044119,8.14721413636135,11.7969223260045,5.56191614100405,5.47398306593978,9.1350489847358,9.84117479881309,9.50246707207813,12.8006000582381,5.34449766786273,6.51766099856866,6.6763835880925,11.8257031744145,9.30526663452791,5.55653572153162,5.63359876682153,6.52033780908029,5.0459123696993,5.93516467259769,5.56965919039856,6.02902220852291,6.07302533423893,4.49410673570044,6.00974173368602,5.62414422020318,5.76766146205055,5.32619099999709,5.12049308591085,5.61865105993642,4.70554961106325,9.43722045780163,6.11537288723227,10.290176383139,4.3379510717787,4.70898081939711,8.03203250786923,4.46789611499926,5.18833268943222,6.39793673918495,12.7083288565393,9.14023321603675,6.30349008252699,6.92650616319348,5.65186682084541,5.99893213180208,10.5950329254099,8.29739508130577,4.96318379823175
2.24445477097424,3.16769933626929,3.98383095498595,2.72322594872628,5.58845931635625,4.68522179942501,7.801528842809,2.28889316626899,13.3890447385839,6.1685745623964,12.9898641124463,1.13680833896809,11.1878813974209,10.4997885852757,5.93131064630631,10.8596758150748,8.77558719630946,12.6086304701448,2.00506791866425,10.984964970808,12.6336424484869,4.42085869347164,7.72948813577549,1e+08,3.42322769554287,12.2368097127907,9.70858162757249,3.00330984041762,7.37467360408352,13.1911218098344,7.26480071177138,13.624127408534,9.42735484284966,9.31838841579161,10.4175566620617,9.21474877507482,5.46137889125897,4.78109792241399,12.5678514624389,10.2584805425903,9.67994957410991,10.2710071608343,9.77728929019918,11.5000835023267,9.05672675934841,9.27790078777278,9.54780290384561,12.4716366712753,8.6835148804408,9.90962679375975,9.81014020572548,10.4505640831057,10.2002457301215,9.60445753342187,9.6128861306525,9.15046722172344,12.2077582347904,8.77375416233757,4.72229230782419,9.85537524087084,3.61919345127646,3.40713506207594,9.69485112946365,9.46335838093013,8.99914867981688,8.40008089838222,6.88983434892772,9.15408584885184,9.33828712360763,8.93529488842637,8.48373426345216,9.79230975028238,9.31307481414301,3.73916731011238,10.0773200034489,8.68600553068944,9.24760513672656,10.252586585571,8.70493104722517,8.90738089806872,4.8086124272539,9.85072050686414,9.35653808762605,10.3281888551488,10.1533742432364,10.0621927988503,10.1746297589418,9.13705426149793,4.57381017801401,9.40168145318738,13.4780102762955,9.55667534428737,10.1203714289326,10.2853444926399,9.1752060118239,8.46271043342017,6.64966916410879,2.04711341273012,9.28213753708796,10.5968419833973,10.4145953448355,10.9546852622217,4.25071975017214,9.32975447700247,6.12857870554849,10.3297454130412,5.49616224008951,10.1756571842638,9.78955127573137,2.81848851944802,12.3900819108456,13.0525601503643,13.5626116768252,4.44021057885614,9.45898319344642,4.88748644591515,10.6281229241605,9.53793203686667,12.8671131006661,12.7970325319929,14.6637066623786,10.8333628961804,10.6735058539779,10.2629017558545,13.4446493003971,13.8693838619369,3.54700931221908,8.9526486671266,12.3384667798816,10.206192911661,9.68113248285616,11.1819316060332,2.85997057340102,11.6430394174468,12.000386470926,5.47146979546531,10.7546194130697,9.59583158764747,14.4750488427683,3.79251583996243,9.79063127199535,11.0690915764269,12.0677244929665,10.1257700516963,10.7887901031435,10.4307708682255,11.1649544100239,5.45868353880614,9.82506234536594,13.9759850137436,9.48847226186241,13.970516590288,4.64232516724398,2.63734578407899,14.2239066096614,9.73427107334724,9.86585716227959,3.31044716826958,12.8899124809702,3.22775681314454,14.0501638710056,11.2486349581207,12.08264741124,6.01066902014707,5.53158590458547,3.66590274856275,11.3242792199381,10.1603764751227,11.3090357744615,10.3962077171927,9.97874544668385,10.5741959140555,10.6009804806387,9.70917536117786,9.80161993710587,7.62134080056174,9.8717671293658,6.05005281141719,10.4870218392952,10.2910039278604,9.39184984784777,6.4633785806249,12.5721479046101,10.3202833114332,4.69168461905681,7.50491120587725,8.61820127119332,2.79290807251268,7.92383571763967,10.2333342460247,10.22209539293,14.1635531557543,3.65342350142498,11.2279789603188,4.57864337743704,10.0324978238436,10.2951814331096,4.49947368743281,13.070364920965,6.62175013404963
3.13388759115053,3.96718382294571,4.07020654450602,1.98804247005384,4.31427342065141,7.17312778230885,6.16501946152717,2.22219132111742,12.1572115166264,6.46450137577235,11.0155442955364,3.87331748589755,9.26537785835502,9.21177528223607,5.46166448419835,9.08457797614159,8.20411121129295,10.7153181339284,5.10562987999639,9.26166849644867,11.411325265094,4.45165930697564,5.40020919725176,3.42322769554287,1e+08,10.4502481981068,8.02708705615281,5.12430151083333,7.07085520382966,11.2725481099756,5.89535404014616,12.3265862765044,7.70746887579482,7.42455293892975,8.39562836518433,7.77451970969549,4.45501015924821,4.40777838477444,11.4713048435201,8.49025074858208,8.11556280076919,8.3069043194709,8.10374793868505,10.5906740794538,7.20757511578711,7.21128281390662,7.81879897877135,11.1325547323555,7.31604238697837,8.5512742510626,7.89198691603246,8.49724384265852,8.28496460011671,8.04848747229668,7.75021764133521,7.33926333914545,10.5441214833548,7.13873066493932,3.09835263775662,7.88374743498657,3.0496817955706,4.28433978651209,7.68656589385046,7.97340464663229,7.42389219616174,6.96690142619269,5.55349147777585,7.61472479657017,7.71128236376244,7.0006436275785,6.98893494451615,7.80961173422446,7.69491928593656,4.51990565602216,8.23879310691997,7.04830318868307,7.34963802708867,8.88142102647724,7.18971774230525,7.05218884113716,3.71163801192102,8.20940565942623,7.47786743424338,8.72318886765592,8.07843179024527,8.15834743658313,8.26610368395753,7.76151283947738,3.30836387292524,8.05235256085021,12.1693384960167,7.52792915541832,8.15829702256337,8.90444630378453,7.18864540964475,6.89741661416337,4.49050235600074,2.83564359040789,7.26304535499032,8.55198840412007,8.68708812313757,9.03536283013191,4.39413277635356,7.99224945180602,5.86804129373177,8.32721072873738,3.52211000002102,8.61143886028046,8.16593816925402,4.6363057139978,10.9636628103989,11.8875252365553,13.0741590518808,3.74642404978502,9.83876348474369,3.49577056228431,9.09274532215233,7.85247737118028,11.1174221101217,11.3082148605405,13.4436065805807,9.27382573817706,8.79364960093201,8.46174765393526,12.4286578244725,12.7067405496439,3.30569285513368,7.20635187525123,10.3479869542298,8.40789071458315,8.0935905954486,9.17306396056553,4.855075011237,10.1178165243869,10.7925527832848,4.46133116477468,8.80941032601835,7.94480937129252,13.0979138400006,3.09439439379412,8.00934038823302,10.044438755769,10.2102009714886,8.59248501373921,9.20250726751946,8.67223564262212,9.30197106505164,3.32399131874663,8.03398928406412,12.4583724874053,7.83040288517158,12.5989063327912,6.05117587524134,4.23326596815937,13.3847725179501,8.23828229657303,8.36031949832273,4.99324841969781,11.9524164827329,5.62305500991277,13.0354784870575,9.17347478840195,10.336052649175,4.77655512159869,7.80414919414118,5.60429312698383,9.31973873602669,8.33255526930157,9.70027264615214,8.36150202113578,8.30844285414028,8.7877571570777,8.98853572864479,8.35821486809548,8.02172527938465,6.77920806703372,8.50034817091179,5.08776774211935,8.54733540461344,8.49541424252034,7.98197798562578,5.08295243312957,11.2440684301259,8.85337401041784,6.34467673055817,5.98139257869557,7.14853781945872,4.02618224580554,6.35737596841299,8.47492216828788,8.90968367231031,13.0847619511294,5.26805182243118,9.46799516022221,3.95622943949276,8.42380542264677,8.82138814360634,6.72241844486517,11.2265296404989,4.68903772114904
11.8409245332857,12.1528344625323,11.9657950327777,10.8835308986878,10.7831590481832,13.4664343422614,7.5907128117493,11.5010909134622,5.11100234372792,10.3299973287818,4.06470543521429,12.4490921258794,6.36636539907851,7.44696414053644,10.357299166102,4.91493730543972,12.0309842115028,4.14297923814566,12.8279494213099,4.89204872364089,6.67294900755332,12.0287472742537,9.07007178484507,12.2368097127907,10.4502481981068,1e+08,7.41791662054356,12.0890441192178,12.097577698696,4.39903736139812,10.3110464759957,6.0943477530882,9.2050423389141,8.34543877931198,8.34144730157732,8.86660313783469,11.9544701664484,11.5973995756235,7.62789302097751,8.96967481947673,9.10866831635774,8.28909399747717,9.2453097445762,9.0591564897776,8.66093985662663,9.26117848446401,8.91344875893968,5.41964824156058,9.30288570277936,10.0554431786769,8.88515291203729,8.50559469836997,8.56639828256885,8.60871382574853,8.71532438207145,9.58639391672951,4.24319717786981,9.60830317820189,10.9486680130358,8.62894067206666,11.5111777089564,12.5598457820675,8.37623278737784,9.72181373834263,9.71745014517328,9.47515838476017,11.0886258505937,8.91371086248145,9.25529582539973,9.25724371142605,9.40729290365542,8.54647935345919,9.57736059687038,11.8737543973113,8.65377223563891,9.48831626700641,8.85901642678062,8.21164825019333,9.59330606115469,9.43966738990701,10.7523068324769,8.93967688715858,8.77436888466587,9.20346439183578,8.13745108562607,9.21248827171431,8.38115562926158,10.2583600655259,10.9000512295391,8.3852661594918,5.1556246387894,8.86639661555059,8.44179878134491,6.56393155783361,8.87719787401476,9.81346911397334,10.1074468388246,11.9133752383436,9.07913884909639,8.58980238170971,9.7448929975641,8.69167117305636,11.5661189521637,9.72928342268375,11.5406121636501,9.37964514932363,10.4996275367567,9.00758000221791,9.23945276021275,12.6332090623295,6.58981940705968,7.99468534106588,12.8358205853992,10.8884294735072,11.9771933337432,11.6188891930376,9.40950267839242,8.87471391767133,5.69059349836258,6.40486177940118,10.4681026557888,9.30005391278959,8.74466925562961,9.53290507563838,7.27320855147521,7.36460674510383,11.6428220091376,9.30649992796951,5.94272646575543,9.49024856702078,10.021263121352,8.70758527890641,13.0254536398389,7.28531044324651,7.54554764112775,11.095827377744,8.70233610567578,8.87005884488,9.31107297555217,11.4656459991506,9.91648740056411,10.2646140174454,5.70504895309215,9.315451631843,9.79822084491959,9.1123286951855,9.31192115204117,10.585478758777,9.68501354770797,4.89753985492913,10.0592034851227,7.81790874166548,13.5930537894216,12.4749136428227,8.98228287431789,9.68968654639746,9.82905089125026,12.4074895649493,9.48925902644667,13.4049942276413,10.0304590787552,9.06948892690974,9.59036914177812,10.2232286198189,13.6789111193834,12.1596644820855,8.92977823782301,9.05025290156196,9.87955843413811,9.195745960515,10.2883285342384,9.3367545529815,8.35326165256666,9.78305285164221,9.6724356336789,10.439290259797,9.38758097881226,11.502822573555,9.43305497520377,9.76540046755458,10.432534266395,11.0994066459745,6.84913408290369,10.3658199332589,12.4906283131321,10.3960125513703,9.20396384652565,11.967151658583,10.6531629170936,9.3010732226288,8.43764516521786,9.62435881993509,12.3400895584077,9.80010618787781,11.5720892500594,9.6059996449008,9.41565001612116,13.3920023705121,5.25334337077441,10.4597557123899
8.76450934892695,8.90216293539344,9.88396191531321,8.98689063144975,6.57619100703831,11.8983772355222,6.01185608801665,8.71897991096155,7.4527628708886,10.1336607099952,6.82954294591434,10.0268199966318,5.05652720099875,3.65067363107083,9.65840402090721,4.2481087087954,9.68486761601031,5.9450507380586,10.5334570448921,5.34742048117163,8.78113510557997,9.31993927045411,5.78661887777464,9.70858162757249,8.02708705615281,7.41791662054356,1e+08,10.3612608984343,9.31111001111226,6.76879144090578,5.98543839499349,7.65447670486442,4.64633590743977,4.4988998101786,4.7289817111226,3.78563630957587,8.68764725799647,7.54533281720795,9.62373004318608,5.01360593300486,4.74755104368528,4.14340630227989,5.00526071837369,7.38277147237621,4.41041206479424,5.46569203632545,4.02156907566853,6.86581049789563,3.30741789104972,5.09622840054138,4.52327346613508,4.54272267759522,4.6172449341063,3.77451485841594,4.18977843742529,5.60156440541637,5.99410279844744,5.01046467567069,8.75295934141112,4.27522378898699,8.1084953357205,9.95974149028844,4.20613250426431,5.01471135029215,4.59365046605332,4.13325376505372,6.77830484838482,4.05962047746505,4.43875516158002,4.67503337345879,4.32800427207989,4.14952178950556,5.34556096806032,9.61423551311427,4.50677818003741,5.25547089876874,4.6633575445451,2.47532891330854,4.45898167250603,5.11451257711007,7.91845369211357,4.30224453334247,4.65261936090192,4.49650438692621,4.158347391279,5.41769022326397,4.07610912161074,6.01712281915264,7.68498222897784,2.83199276487953,7.63647588119936,4.74327950856436,4.2354249520082,2.4610866096394,5.37910777783641,5.4156847238725,7.0521708071477,9.34912405278332,5.05308578985916,5.63636191258938,5.73635428688859,5.37301640876343,9.48126335319188,4.39066887258982,9.92051440529476,6.06929480466844,8.09676385981926,4.31665435820306,5.08821006591081,10.2403385397107,6.35838443161233,8.93550758490571,12.2764306355545,9.74247220607598,11.1287716318691,8.46014182588263,5.75591939034234,4.90316727427895,6.77267169713676,6.77819581070758,13.7461884211671,5.11344736314457,5.61173452851222,5.58004696361516,9.61917676044923,8.85781240555363,8.83098705009148,5.13914370068374,5.7268931088352,5.8141271078191,5.84616421118502,5.9359895268491,10.7206801846119,5.23487441227463,7.96679407466765,8.08899107188977,5.81344974024565,4.38435571885336,12.966633306553,9.00506992928342,6.02724480374997,8.42937843263256,4.90568061047935,4.885442582642,6.33947407850886,5.14954967806679,6.06070962097526,8.06420714703539,5.09598936401106,7.63867610959746,6.29635250519182,12.568831592711,10.5278157653477,10.0179904592627,10.7051750481429,5.50570566899976,5.60095786934194,10.3087132848206,9.00806353903131,11.0303903204984,13.6517541058714,6.33913268236139,7.37270231342234,7.8110873117005,11.9800962071319,10.2728019296751,5.84785595565641,5.50583827008153,7.04964208576326,5.6231311647471,6.53917110619047,5.58416758076658,4.07491950838777,5.85768017624963,5.90524487551278,6.07140768181195,4.45985488623341,8.00794082491194,5.69191111304092,6.10013586384122,6.26543740646808,7.0501284750665,8.03723370035249,6.41355707805744,11.0021794325446,6.12622435597323,5.89271985664964,9.58954604998269,6.06051992857357,5.66221105613726,3.2896962558992,13.529330859527,10.2336995524668,6.95341627481839,8.89676192511439,5.16428311373765,5.63099767141652,11.3120136935983,5.97515610043102,7.79302241728426
4.05992575703607,5.00231843260039,4.73240946686922,4.34842583847115,7.35369604659647,3.21049918142117,8.11751223156215,3.70222541209537,13.323883958576,5.19098707298372,13.4033496965214,2.6135428388616,11.873112308719,10.8910950102167,5.63697199065717,11.0168898838297,9.68752604814509,13.0390637282647,2.57756471970939,11.1658677911957,12.4632178392674,5.71285638861854,9.58257794323046,3.00330984041762,5.12430151083333,12.0890441192178,10.3612608984343,1e+08,8.44719800616269,13.5323650201466,8.54181494756711,13.9158976272389,10.6447631926012,10.4248856936394,11.6084338410053,10.1868616216909,7.5300332934272,6.47983977273032,12.5817129233458,11.5427584656091,10.7749809786047,11.4490780390812,11.167314883029,11.8970561552352,9.87752581337154,10.7536079111483,10.7337367325765,12.4975095259363,9.78654999223646,10.965173029457,11.109777649167,11.6122286401918,11.4832147720939,10.6332668710751,10.7732164923253,10.6630530184711,12.4820085370931,10.0857680844571,5.57954178721688,11.0323900344469,5.43428685339329,5.07269386430759,10.7598903371364,10.7967191930362,10.3019244244968,9.5748746698299,8.76783287503022,10.2174872516262,10.5067831496602,10.2081471768624,9.69131434336448,10.9529152078696,10.6998207987049,5.29652930183706,11.2494457617023,9.99377345995462,10.4065417867953,10.9891432347808,9.93707426037182,10.2239012273137,6.20422166176723,10.9581655447371,10.5729425877619,11.5680613249334,11.0348729982327,11.420550550244,11.3447829783248,10.5929873851627,5.72898411426983,10.0435494228838,13.451833388454,10.8335473817132,11.2429946822508,10.7398619130539,10.3733683121803,9.95964871942795,8.02883914426817,4.12080508994096,10.4520115613944,11.932611810158,11.6108122784665,11.944857925215,4.22282084509579,10.4250642625414,5.92555193030047,11.6311596689181,6.58699627386689,11.1399474247864,10.8787986439015,3.85772993623755,12.7843699064037,13.0592533832037,14.2025938028095,4.65308467039206,7.89233394490552,6.42656421062553,11.8365111481494,10.5169428261792,13.3219624247965,12.9916021522964,14.6673816991171,11.8710048216577,11.6850790707449,11.5189563983764,13.2735929855276,13.9094135271822,5.07350052675101,9.76601474711844,13.0418606226821,11.5478371912855,10.9339245865016,12.301777107413,3.59809531432048,12.071082742549,11.942657457897,6.7464645005679,11.8626785248695,10.5645720440974,14.5072166015719,5.2501048609329,11.1423225774281,11.4009682725066,12.6042938067089,11.1159330983102,11.9166511457849,11.4197165781146,12.2878849091713,6.6533617536487,11.0415033504051,13.8980237772704,10.8560004534207,13.7308533626863,6.22262394158226,3.69340466797885,14.1552879084508,10.8330212243436,11.0587252281788,3.08631846707016,13.2287338139705,3.79910420302995,13.7022956804064,12.571248025618,13.3400696124002,6.86252987796265,3.87470778448745,3.2031094531046,12.5219546483246,11.0429712647521,12.6854209708875,11.6491272966997,11.3156495833732,11.7601901185362,11.4095511848047,10.815148554393,11.1647702494047,8.62848238015947,10.8161385460851,7.43745284094384,11.708562740749,11.7375235468226,10.6678991521425,7.99158968633085,12.6166612621239,11.4763071966737,3.87782435059992,8.96455218652436,9.86929386521123,3.20083460223638,9.37642949169617,11.4361638605893,10.9742905101881,13.8252697241167,3.67904361219697,12.5721177679955,6.03065229072674,11.1774052970153,11.4106945161974,4.10465936668614,13.5576424175137,8.20755630056754
5.88538672805635,5.12454447393459,8.05382140830391,8.11164190801229,6.8227412889287,10.563418361499,6.5435218818098,6.86695156837153,13.3979298324124,7.58967818900561,11.682254522441,7.26810255885999,8.60892203959054,11.5327201847005,8.8968582071971,10.4597717373408,1.97214729317629,11.5625589879271,7.29241938571062,12.101492846849,9.01351766730214,7.05652920257868,7.31988954930456,7.37467360408352,7.07085520382966,12.097577698696,9.31111001111226,8.44719800616269,1e+08,12.4154377182519,5.77532907364502,11.0753900773553,8.9143607289164,6.90479811204914,8.04159592341238,9.61295173241108,6.46638887293486,5.52956717962415,8.63761977398439,10.3099100699596,10.6293366849617,9.35588155153962,9.88348489751053,7.01583942881115,6.6297759178486,8.48906805474068,8.65599379014231,9.64341448034365,8.56702820854131,6.41273395753917,8.57124980198652,8.39360599466684,9.83265828155399,9.95777649918037,8.21134163620024,9.47661175705856,10.1200748937988,9.46366488932902,5.76903758124641,8.40112098682438,6.7249538108587,6.7645239438628,7.61164050469795,9.02923223853649,9.01819178277079,9.17561067879212,7.51291123043891,9.86804452009455,9.16012701437685,8.14575520599323,8.19433502818877,8.15914063855909,9.93522144504166,9.48143664392659,8.15788339730312,6.06679791819536,6.72882899461472,8.84251906936415,8.6023740335101,9.69558830260518,4.78049964517424,9.20452601404815,7.09868907691165,8.52780469103427,8.07776730493947,10.3339842665344,8.81326451088378,10.1887802709149,5.13702080028364,8.16366952420076,11.0100026882448,9.69594615210188,9.58501877638903,9.6884636248271,6.14993358619222,8.47456893023307,7.29546690765661,6.70772980918664,6.87461409770641,8.45720044844426,9.7644747004994,9.53765253100793,6.5588365107877,8.49247367192448,8.28989563429716,9.0565712703814,5.59055702805455,8.63403241203964,10.0196537360367,8.67981923952637,12.6025672782664,9.52799603927668,7.9540714721424,8.13427216094102,13.8313036546264,6.16144713505714,8.78456733121282,7.03463582309249,10.5821135718686,11.3253420380009,13.7476010002695,10.134394554618,8.2254332470407,9.11682501253083,12.5960947110537,11.1363705713787,6.17978109929408,6.92377504424242,12.6958581734983,8.4219438850973,7.62368285579348,9.73289953135162,8.64294368867486,12.0169281469116,8.48890928185811,8.05719551649588,8.1878263406694,8.18144678559125,13.5323677693613,8.14718457863267,9.28972019985502,5.76981887865409,10.7583402515758,9.30479067016861,9.60031243611281,8.98406721120219,10.055470192348,5.61903237001515,8.89065252224743,12.2015155961961,10.0052027366322,14.0028380440954,8.8141552427609,8.14608463393927,10.9593194489415,9.70369507523734,9.31259304159881,8.35951404979533,8.29788890374559,9.0848375678001,12.0821344886416,9.6006571396146,9.35116427261002,8.13395345229494,10.4854999076198,8.65610446401655,9.6261755996231,7.39840529707614,11.3838808302039,9.54669104862366,10.5401333035004,9.78232577899019,9.98557452134572,11.048718320444,7.50185904383123,9.06443014758759,9.22220497463436,6.09820964403142,9.38652323995829,9.73883964032669,9.77353449442757,5.85470530676117,9.1159621007342,9.00826712754713,10.827051306922,6.26197857699558,9.46357666188374,6.87354369471555,6.7768702841815,8.45221052904528,9.89800479268339,12.5868163296839,9.66462977494029,10.8241257047063,7.63699061029063,10.1958929759395,11.0110323150767,10.7659572392064,12.0799642855025,7.99084479780828
12.605365037881,12.8682853478292,13.4913368677421,11.7264462669409,10.7611103802963,14.7380276976749,9.01637584451244,12.4502910470853,3.76573726447223,12.7884725035996,3.16996938864457,13.4221889763031,4.84304795446304,6.60098606503021,12.6667229981872,3.84523370322343,12.2042603751004,3.60616261009133,13.9121802115383,4.07832028618556,7.95869336760245,11.9390864257985,8.71358513168299,13.1911218098344,11.2725481099756,4.39903736139812,6.76879144090578,13.5323650201466,12.4154377182519,1e+08,9.7548632398973,6.33459451315278,8.23195024476532,7.39181172811826,6.8963608681787,8.09004531371419,12.0083687471351,11.7582317242782,9.04476230641068,7.67306530557885,8.23378727362513,6.91796066080611,8.08214068245962,8.85112821787191,8.08600547318513,8.35299632499287,7.88543867377546,6.24515690775562,8.5915947228201,9.28331317754582,7.81130555635402,7.23456825766768,7.16956937215301,7.55641885490766,7.69967655293863,8.75065343794603,4.57725293011434,8.84052532399146,11.768445958879,7.52310199633759,11.9238263985835,12.8540087652971,7.40398231659253,8.79127640884954,8.84943343738097,8.9937127862431,10.8188931783534,8.22873178544663,8.29782144175986,8.47595263174821,8.69465471607978,7.40992107269267,8.65641968916244,12.5151645076175,7.43798023473295,8.65871014354994,7.92158310372486,7.06324087969147,8.83224825044616,8.71304806716371,10.9539439316599,7.87701247207537,7.72334366004718,7.91864010942256,7.13298923087477,8.11394678764909,7.09717644943753,9.51244881814985,11.3840599895874,7.55301130992839,6.27563934550643,7.92280671093733,7.1424677879475,6.55837463553074,8.05669319985066,9.07765277863889,9.77186565506721,12.6918857362828,8.25098705812975,6.97078847942998,8.7535948613242,7.47175050970435,12.9140729965745,8.9798105706876,13.1800081338415,8.31594659723822,11.2708677382284,7.96318021158403,8.40492367786662,13.6245110631233,5.00268159423354,8.45322515822624,12.1914124308007,12.0522001012568,13.3884212915396,12.0115732907256,8.23098194506103,8.10351266701794,3.80394495011124,6.68826160364724,10.3591677364164,8.13525638464421,7.4427099595946,8.49862309779073,8.51714777279051,7.64024075629614,12.267298496942,8.80337040489404,4.82579910934667,8.34954928549931,9.08903232355069,7.28913658150301,14.0655832966046,6.24394229636421,8.89426989052652,11.2786547916244,7.42234343197755,7.92308631079874,9.19338976495659,12.1796684639293,9.01872124897167,9.88022846809813,3.70294463747227,8.3997859607326,8.65951975598825,8.04664864518287,7.97982891130812,11.1886254205021,8.8262047636902,6.26809909318255,9.36522145666243,9.20662414817517,13.7590547056222,13.5955507023304,9.16300342198406,8.91732646809854,9.01579576984874,13.5366711683053,9.24607057995825,14.5002555880616,11.1793954900216,7.61969795511584,8.07495388495517,11.6700593308293,14.9014077466869,13.3660256114279,7.41444626465711,8.18019941105847,8.51806648310346,8.00133209700969,9.47315510498982,8.13999612822619,7.18947912717857,9.15133041360395,8.69373672807247,10.4066198452851,8.55967817835458,11.4113055009552,8.29072904060143,8.51344385774329,9.78942590018275,11.1732056757569,7.49645636869627,9.48931890437606,13.743589310657,10.0331118924554,8.6696901846795,13.1766198808976,10.2938193146486,8.15223180215062,7.41307138799418,10.8827612450612,13.39265610579,8.51831392436807,11.9051263717602,8.71644938018429,8.44916779399372,14.4998565464323,2.76477884446127,10.3404512074734
5.65561729038743,5.33830142331651,8.25832175219798,6.98298404012486,3.15197465792172,10.3188852833706,5.13172173696448,6.01342248865122,10.8373798823228,9.37984829056502,10.0488073087511,7.35680378132344,6.6996440415972,7.35665432071608,9.33030697239536,7.47885354037897,6.38706249144525,9.67313584851256,7.99540499152697,8.6856842099655,9.67142680710516,6.25515488758534,4.26932981334366,7.26480071177138,5.89535404014616,10.3110464759957,5.98543839499349,8.54181494756711,5.77532907364502,9.7548632398973,1e+08,10.3322009758974,4.16772214219194,3.32426463744637,4.57843473649222,4.8418790560139,4.39958129773287,3.15043263386924,10.3789227130928,5.78059060905504,5.87115553178702,5.02131720154068,5.38685904394968,7.82405449407913,3.23414358943136,4.45540413942126,4.20199748751423,9.11989349931481,4.17695259765562,4.35576268354354,4.33824205207946,4.56936265157928,5.4130813386337,5.22153360732167,3.85999918719502,5.07077895639355,8.82232716344451,4.56678446496944,6.22694393265175,4.20327996209822,4.49418591359608,7.0215812924696,3.81915700771712,4.44273770196611,4.36053910946253,4.71402748863771,3.69537322652836,5.14059337041702,4.28125774098041,3.37193956537384,3.28317343017321,3.95388302808415,5.38005867625189,8.30410877925988,4.08575464309462,2.28572633709934,3.14222708524706,5.36944830319531,3.72570329729542,4.94947337943779,3.65772211429937,4.64711911228436,3.22139841093264,4.66126581730119,4.41016179159709,5.89616113948502,4.72424551136058,5.7527751720654,3.81737808634935,4.54743607033269,10.4395874546752,5.12143067773814,5.18014559278556,6.64186278309696,3.24785986762439,3.78316240222932,3.68126063561137,6.83078485006741,3.37971779861323,4.98693071601804,5.8593177155603,6.06323847634642,7.43233207105776,4.76333636460799,9.08306777413647,5.51033257506749,5.39510663834745,5.15150775985206,5.48555393013197,8.07106893235878,9.26669765942557,10.1066881098215,10.5162204655027,7.97148069204821,11.8490477626962,4.90744739492881,5.47909695788363,4.06926329967762,8.92745185963335,9.82765223608003,13.7190195037938,6.06736669104082,5.37650366224958,5.23068317382269,11.8322682083963,10.9059499219336,5.43824215634024,3.6895661300633,9.43794558284029,4.97726340524752,4.27565187148727,6.42875221198958,8.45448979521841,8.52815828059889,9.2827939545519,5.42132126259607,5.54472579454857,4.33033917120437,13.1190981388931,6.65459858101528,5.37171165853479,6.65537416035747,7.96133674158108,5.37500637024012,5.94264224140954,5.37238190067222,6.41159261909712,5.21767454724569,5.02318909880232,11.0619947618298,5.87166505202509,13.3149924266887,7.91451344267295,7.75171727217344,11.4781560218473,5.38958117762099,5.29105597421333,8.27198631770794,9.33384791258682,8.80549465104959,13.2026758073702,6.37375627455559,7.08912895750957,7.26812044800048,10.43786438371,8.46472007504707,6.14105757809953,4.77671143639982,7.47355483937548,5.66220807871045,6.44269960499705,5.86674751416608,6.07484863525616,6.58875074265083,4.35935259350693,5.19441933939352,5.08558540726883,3.79739276159977,5.51517805113985,5.7410785477835,5.54948488705529,3.72068288867804,9.40120911262813,5.60449651740001,9.75821967312469,3.35410169412583,5.14542608679474,7.05062160660272,3.30807265299626,4.99941917159219,6.17582981651808,13.3588881534321,8.61186187880809,7.15820208531169,6.75796125312498,5.84274482640081,6.55598676408942,9.96845279629848,9.31735200592409,4.92726504156195
12.8129954681135,12.6244417493013,13.4038841138963,13.0685834652575,11.255404010562,15.1635318004438,8.48816422214595,13.0169600938621,6.59807835423402,11.7846624169914,5.30123828964535,13.8169779314833,6.22150995637177,8.43568683103665,12.3754275821465,7.03247561824576,10.6151999881545,5.05599262163055,13.8597690911729,8.20976367629656,5.51739531566644,13.2064925869699,9.55885964452949,13.624127408534,12.3265862765044,6.0943477530882,7.65447670486442,13.9158976272389,11.0753900773553,6.33459451315278,10.3322009758974,1e+08,9.07704700989054,7.92992281914367,7.57618679296527,9.10193988830819,12.5311682291087,11.9071342608081,5.75623055646219,9.02922489548626,9.57814263705414,8.07817809934234,9.19174828168406,6.03900016454734,8.39871019103947,9.27330053464732,8.47764867912546,4.23994008068626,9.15674173882635,8.05567957508469,8.47068019541919,7.53925050927135,8.52547629169679,8.87543801379671,8.24042022739162,9.73650394077113,2.97399828331647,9.96609329957424,12.3850407949532,8.25709800816437,12.6778229311799,13.4901741729743,7.91845368575487,9.26316440749463,9.59342680108298,9.71109540814905,11.3284648168758,9.3283574663287,9.21006973523986,9.25399026158655,9.34132481875573,8.14497025025105,9.8043205232894,13.55088088544,7.89632758247465,8.81074599174383,8.3675222218436,7.32667714023015,9.50436923443757,10.0669286724478,11.7165577583641,8.60205824106823,8.20624223337467,7.88438838118084,7.77783063694535,9.43083029804844,7.84054330280475,10.4191495628737,11.9960075329725,8.06955668300532,2.50626853548088,9.3050301467767,8.47015828645468,6.54510422431455,8.40273259960774,9.70235224724796,11.4423724678922,13.1646893370839,8.66539099306977,7.82118729793733,9.51593484982949,8.37206556170242,12.9038064016089,9.20222380817035,12.937404145699,9.17977288932249,11.8125017357651,8.32957798861081,9.54241315533929,14.1711072642152,7.81423918168144,6.07047685345067,9.69378540939493,13.2474337469282,14.4908394758466,12.7613370036106,8.38953092781614,8.27881400533079,5.51846707979864,5.73769959734407,11.1129530455029,8.81682583492905,8.16046685636517,9.13912939785486,7.39054721554623,5.25769758592664,12.8691231381627,9.26211237208657,7.44345534779899,8.83233515506152,9.24338892857232,8.4183209273351,14.5301365912697,8.45227240258845,6.0024980620409,12.6951997496099,8.0124319483543,8.57570375113014,10.166696160348,13.3292154469569,9.87176713876327,8.58917919308868,6.30596588861268,8.95437408343056,9.21225736284529,8.7469005339748,8.94082354647649,11.8625912988602,9.32794874272957,4.08354756495338,10.4544205183632,9.95509960511288,14.3165131043189,13.9078455813729,6.90328849268656,9.73188700289963,9.57701220134572,14.033609555954,6.33552359592404,14.7048418560564,10.340285077301,8.47550507581087,7.99810147366907,11.6466827490291,15.1955587089893,13.7304426491866,8.28730604979113,8.46344549875174,9.73905688088901,9.19364520357322,10.5990421657218,9.11104703539605,8.25709046282795,10.3792666104071,8.92631806982661,11.050637195396,8.96532358439781,12.1510292333867,9.21653877138735,9.61171396855903,10.5428975539484,11.2564030299658,5.57109550416408,9.64391750484929,14.6692594833449,10.2729873876209,9.95880353751769,13.340710148837,10.5164371504001,8.80021396998565,8.31635953501037,10.130780885939,14.2477941609731,9.57853192910429,12.9549019311803,9.66262422232501,9.74808108207629,15.0593720937541,5.98969040530851,12.0170237995433
8.34585265894364,8.18848669025229,9.61501111537074,8.64138257388611,4.55422360201127,11.8488181838424,6.32565083080224,8.28345306804901,9.42265537760446,11.1407147887857,8.712408392608,9.75314521096075,6.74722932839475,5.13836168202622,10.2372991073248,6.78407187951389,9.35036145136192,8.10354145640008,10.3902910859202,7.24239458010187,10.3096520568861,8.92528567893533,4.33157964164097,9.42735484284966,7.70746887579482,9.2050423389141,4.64633590743977,10.6447631926012,8.9143607289164,8.23195024476532,4.16772214219194,9.07704700989054,1e+08,3.37659445950012,3.2722174357529,2.57076615850735,6.36570197536859,6.02292873954267,11.1088677120551,2.10189168039756,2.62872960003766,2.00413088142941,1.91055009601833,8.77404831082137,4.00335312337189,2.38737112136872,1.64666652019917,9.06255809319644,2.44449126835662,4.6950776019566,1.43183036243569,2.48233629837062,1.92179469175241,2.33229293932977,1.54788160121582,2.29802643621753,7.87488067570927,1.84051938189823,8.81297599987207,1.65632450638202,6.7775109380651,9.61275030139595,2.82273873613153,1.51487644869971,1.79190767179468,2.3424796208334,3.92855992646131,2.35036272153922,1.23721259585343,1.35235740098336,1.70900620572257,2.08366906507326,2.2251250998458,9.10118510849252,2.14356660286164,3.60354172400167,3.35359305045041,4.29444431751264,1.60022040225209,1.89969380490538,6.97408567958507,1.45922251842296,2.94455062867662,2.39480995187076,3.07181174128358,2.4719170568372,2.0084044769026,2.95345913983466,6.93761457957712,4.15374422538102,9.63120142854871,1.76792558321821,1.95657981984089,5.22427589110673,4.19180989285918,1.89575501658316,5.24485509638215,9.18639598277892,3.2795514975282,3.55977970133085,3.80868831292412,4.42272426606286,9.89017232677348,3.73375039329912,10.4855972051163,4.11902803950946,7.91705369946216,4.1068743614204,3.13898552058536,9.90320372833029,7.64157208217355,10.5360885724068,11.9831338278161,9.92377345413956,11.7872818733626,7.29268276670214,4.37059879944181,4.50596476543983,8.32921301092622,8.73753019791309,13.6679392536371,3.67439978714729,4.95092633856104,3.54457072081415,11.1150108837884,10.615458400386,8.1243948451438,4.53266225077179,6.84530664385883,4.00521796967499,4.00618935821233,4.78114864135799,10.3868208847973,6.67455524082768,9.78464543768684,7.08741977462319,5.15526907739109,3.70368296752777,12.9138182235847,8.24100810149069,3.73940034653804,8.7077563034521,6.72355846071395,4.03100985945579,4.45074524395473,4.12829732485873,4.44226053581489,7.76993548176162,3.23683810021591,9.78720791835403,3.90675144459606,12.7061512435165,9.82110557782699,9.64081767217216,11.9178983629647,3.6059834172894,3.66219196623043,10.3489306988431,10.1701501479248,10.5828065362935,13.8209331861128,4.60095376036548,5.95779050365402,7.9796658810367,12.0384091196045,10.3109368898825,4.27800497509313,4.949522772658,4.85757442877907,3.69290760507012,4.23485437335406,3.73738225406105,4.32698847953309,4.00599692923166,4.0626697012328,4.85271599108333,3.57273219348003,6.42396891852968,3.68119435545273,3.75490287288485,3.84216007399912,5.8281763814163,9.84342340450076,4.55934971572719,10.8924726833538,4.9284053773808,4.08378690728942,9.57813652264323,4.01225957761671,4.15465107196242,4.84683236700454,13.6767544287936,10.0598896706709,4.94173728464392,8.67294394401496,3.13096943918202,3.79729325789951,11.1357701803232,7.54101751605885,5.9505296916662
7.97931087733788,7.74822197763258,9.70964425458058,8.56867207193069,5.24708278823948,12.2162760648942,4.86815779910569,8.18081950222419,9.07415823115813,10.1294031961111,7.51268293713406,9.55946341785199,4.34298923230891,6.38620242325739,9.95526637964906,5.71212744509767,7.08261204792466,7.20800499529516,10.082509807817,7.27422668868626,7.97583491063096,8.23177833441545,4.04058154936172,9.31838841579161,7.42455293892975,8.34543877931198,4.4988998101786,10.4248856936394,6.90479811204914,7.39181172811826,3.32426463744637,7.92992281914367,3.37659445950012,1e+08,1.64810694952065,4.45060646947769,6.65021907980848,5.96941557958297,8.65682467564809,4.58648358172791,5.34610046133533,3.09453115602883,4.41524838735106,6.28406492147599,1.85592826389787,3.54805644706824,2.89744977150268,6.97605942096684,3.74814054129622,3.25674269045521,2.6495974439168,2.20246874226352,3.8275256006799,4.37881347248708,2.13527568763097,4.69586286949627,6.29037767584227,4.54615782857441,7.60688286400606,2.23994844523133,7.02633717527206,8.99639749206153,1.21631690290117,3.9821281023146,4.16941413444948,4.58851947433768,5.0474579272825,4.70458843937462,3.69885138876585,2.79137376547944,3.31882974331274,1.81769486900413,4.96003837347506,9.71379908414914,1.88934193935202,1.56634208680233,0.796356324947803,3.75059461924796,3.71119509491496,4.68201319673555,5.82363493426979,3.49376760120402,0.846730252333636,2.83566656801661,1.89633659934073,4.92664298868992,2.55067093290462,5.76049107612135,6.12610930194744,3.42690068723731,8.20290278253611,4.18514178122089,3.5465958184616,5.02357680765262,1.27065170314742,4.10811977658765,5.07264564090794,8.76143676734808,1.54823168257362,2.67126046896723,4.93175957518067,4.30006158081983,9.05943672600495,4.15907423436271,10.0070758746035,4.25682660814793,6.70858920455383,3.78225103553215,4.92632998668468,10.1691242169281,7.71347830936856,8.39772507604111,9.77791953665212,9.3029362884279,12.8364590623567,6.92514441196345,4.12015275934719,2.69586447874066,6.43525185762617,7.81930051838814,12.6596450183774,4.84835027919403,3.39326654729036,4.16012063839358,10.3075305674127,8.9263000379272,7.64651765296339,3.14383483838259,7.40278341663547,3.69159226956142,3.52525025372471,4.60256887893889,10.5654172487592,7.104281736348,7.5941965639467,7.29104786970383,3.49641713868174,3.1335782015791,11.8609936963615,8.42334601630866,4.75970598543814,6.01865331021428,5.55620061591089,4.60884472238053,5.04556421288678,4.00864444199428,4.93748495378051,6.54793312980592,4.07214989309494,8.7040537077595,5.65034484911894,12.0456131553797,10.0954858755884,9.83298460002095,9.99723243135691,5.0136142178343,4.73495460605862,10.2168552836144,7.76831820006612,10.9702494291156,12.2523837641685,4.52722985650704,5.21008482797085,7.98143595136761,12.2369811505486,10.2172068431651,4.23733964453674,3.16904660917238,6.43200786470236,4.3323437306133,6.12070247767086,4.60932766147614,4.71184553775984,6.40783909695733,3.17660980392247,6.09234032656094,4.45273400024707,5.93043098691559,4.28908409138652,4.84209153172859,5.65799538772961,5.40782571796421,7.52604884587223,5.05720349781997,11.4499265034468,4.18159439439116,5.21538789339168,9.12526037605861,4.04392377805816,3.62606320230835,5.08899555812459,12.3224710486941,10.5025216843967,6.04230251239706,8.22650888380221,5.14838927904082,5.91479195365358,11.8220426359095,6.83606385915303,6.08146422332323
9.1814714792483,8.97170806095704,10.644712092458,9.50094574087981,6.08579378062831,13.2076714465025,5.97849368700335,9.32049782032004,8.89541217670977,11.2313300478447,7.12078547963557,10.6908201032458,4.46873163236195,6.37109382967797,10.8430798938072,5.93263703751096,8.10832239276165,6.85205602716387,11.2664814946612,7.30159402048146,8.44718026661007,9.23364674733884,4.43058215881639,10.4175566620617,8.39562836518433,8.34144730157732,4.7289817111226,11.6084338410053,8.04159592341238,6.8963608681787,4.57843473649222,7.57618679296527,3.2722174357529,1.64810694952065,1e+08,4.63490362476354,7.46496368171507,7.14839394865797,8.9985453448903,3.95991528306835,5.1179716510845,2.32053843171796,3.95302430457197,6.7287091310773,2.98758530519093,3.17678114394208,2.74755553207355,7.26260050166786,4.12786956002555,3.65253773954466,2.25233580407454,1.40451336171731,3.08781982729007,4.25407774554001,2.01236657551091,4.42197795273891,6.13599574087246,4.57361182781615,8.7437767400248,1.82035338211672,8.10049607351164,9.99876732142147,1.36538110681955,3.91717198933599,4.13109242613368,4.79962645599218,5.66308927172581,4.73614845140186,3.6845830135748,2.97739418757468,3.78435340882982,1.50530061146912,4.71478480077602,10.3869227990868,1.43204192450364,2.77120224252485,1.84615602341174,3.93178512624018,3.97016625692151,4.58219416428038,7.09336619532627,3.2768259948549,1.52954478024661,2.22451031400721,1.7295119942554,4.31611634888211,1.79123484338947,5.6262555352519,7.42074604696956,4.02194866589114,8.17400335030195,3.82512491057358,2.88315940051471,5.23771330330782,2.2668836439009,4.25723961522684,5.79851546575344,9.81397088848327,2.09905242683514,1.4816260470478,4.67744629737199,3.8603741124173,10.2637680996715,4.47496106888879,10.9468925508437,3.90138152682207,7.87384561717799,3.86108277183598,4.88127114327694,11.2108294411819,7.48923538349502,8.6711514515104,9.98318474726534,10.2966073561361,13.5233149310362,7.97889738167778,4.01051779790118,3.39986979159573,6.20592057760684,7.73776754976571,12.4844234604406,4.52966822847613,3.28814836330346,3.95862686687565,10.3628979220201,8.94649428015546,8.81347480788605,3.99727539897859,6.79152864846381,3.50112670223195,3.76178543435097,3.92386838775472,11.5990202116106,6.95365002325253,8.07644090778035,8.21262048819673,3.26213972245302,3.45655281094274,11.679637287033,9.3372692561411,4.59411786985294,6.81515999400403,5.24244445826235,4.69902459183533,4.78778839999383,3.90159204103749,4.32035537494989,7.66922553066148,3.9217996804292,8.53168725188962,5.56008281869661,11.968917116289,10.965020453163,10.9099044757502,10.2293022122129,5.04373619252595,4.78462580766951,11.3097296133923,8.06192401630464,12.0062324360361,12.4081997197948,3.65067701413351,4.56929571282256,8.85316848834384,13.2497674343232,11.3081910301364,3.43802632254406,3.54045357631349,5.77872560554095,3.85257153408502,5.88863328555881,4.18898070947475,4.5767414640916,6.32500681494504,3.31854670655608,6.77954987221639,4.6400852832389,6.9998481713882,3.90968653582632,4.45647344484547,5.75431378313834,6.40386597622508,7.9117162367848,5.03111398040021,12.3686012031451,5.05505089746574,5.48770884651953,10.3734065539936,4.8083452356052,3.59425019304094,5.2275082432818,12.4031572738586,11.4690039669827,5.41544555979783,9.1138216500115,4.8917252271046,5.65150876719064,12.7407348933461,6.27849498307794,6.73764647190189
