1e+08,36,20,20,16,30,10,40,20,20,20,26,10,6,0,6,0,16,20,0,0,26,10,20,36,10,20,20,20,10,0,26,20,30,30,20,20,20,20,10,20,10,36,20,16,20,20,10,20,16,10,10,20,20,10,20,20,10,26,20,30,20,26,30,30,20,26,20,10,10,16,26,10,20,26,30,40,26,16,20,20,20,30,36,36,30,20,10,30,20,10,10,10,6,40,20,10,20,10,26,15,13,15,17,8,17,23,14,13,14,14,13,11,24,21,25,12,22,21,14,6,15,23,15,8,13,22,19,16,16,22,19,13,12,17,19,19,17,12,20,15,19,13,21,16,13,11,18,15,7,7,5,26,18,17,15,15,21,28,13,13,19,13,10,19,19,16,18,7,15,11,7,15,10,19,13,14,18,15,16,14,26,16,13,16,25,16,17,23,19,10,8,16,6,22,16,11,12,14,12
36,1e+08,10,30,30,30,10,16,20,20,36,26,30,20,20,30,10,26,26,0,10,20,20,36,26,10,10,10,10,20,20,20,0,16,30,10,30,40,10,10,10,30,20,46,26,16,30,20,10,30,20,20,10,20,20,20,10,10,20,20,20,10,30,20,20,10,20,10,10,20,10,20,20,10,30,30,20,20,10,10,20,10,36,20,30,30,10,10,26,30,10,20,20,26,36,16,10,10,26,30,20,11,17,18,8,18,16,18,16,21,15,16,12,18,24,22,13,20,23,15,7,16,22,15,9,13,17,23,17,17,16,16,20,8,9,12,22,20,8,15,16,16,15,20,14,14,10,20,16,9,17,8,20,21,18,13,15,15,17,17,8,14,15,12,18,21,15,20,9,15,12,13,18,11,20,12,20,14,12,15,17,26,21,14,18,20,19,17,15,16,10,10,16,14,22,12,12,9,12,10
20,10,1e+08,30,20,40,20,20,20,20,20,6,20,10,20,26,10,10,0,20,40,20,26,20,10,10,30,20,10,10,20,10,30,16,20,20,10,16,30,20,20,30,10,20,10,30,30,16,10,16,10,10,30,20,20,20,20,20,16,26,30,20,16,10,30,20,40,30,20,20,40,10,10,30,10,26,10,20,30,20,20,20,20,20,30,20,20,30,20,20,10,20,10,20,20,10,20,30,40,10,12,11,13,13,23,12,12,13,12,17,14,15,12,20,11,20,9,14,13,14,22,17,15,12,11,12,12,20,12,12,12,12,17,11,18,16,15,14,29,20,16,21,16,14,14,12,12,16,15,12,13,7,18,13,13,14,10,15,16,22,21,14,10,21,18,16,11,12,13,12,14,16,17,16,11,21,11,16,13,13,14,15,16,9,20,13,17,21,14,16,16,20,22,10,13,15,15,20,11,16
20,30,30,1e+08,40,26,46,30,10,20,30,20,30,20,30,26,10,10,30,20,30,20,30,40,6,10,26,20,20,26,20,20,26,20,20,20,20,20,36,10,10,16,10,30,30,40,16,16,16,0,16,16,6,30,6,26,30,40,10,6,10,10,20,36,20,26,20,10,16,30,30,10,20,26,26,36,20,26,26,40,10,16,10,16,36,30,6,30,16,16,20,10,6,16,36,26,6,20,30,20,8,16,17,23,15,14,19,16,12,22,16,19,9,22,29,14,8,21,21,11,13,15,21,13,12,11,18,27,15,14,16,14,21,12,16,15,19,24,14,24,19,18,16,18,13,12,15,19,16,7,14,9,15,16,14,17,12,16,22,20,14,16,12,22,18,19,17,22,9,18,15,18,13,14,11,16,15,11,15,16,11,28,19,13,20,22,17,20,23,16,20,14,21,11,20,16,17,16,13,14
16,30,20,40,1e+08,10,20,10,16,30,10,26,46,36,30,16,0,30,10,16,20,10,10,16,20,6,26,10,20,10,16,20,30,30,36,20,26,36,30,30,16,0,30,30,36,30,10,20,26,16,10,0,20,20,16,30,10,30,10,16,26,10,26,10,40,26,20,20,20,16,46,26,20,6,10,20,40,20,30,40,6,20,16,20,30,40,10,40,20,20,20,30,20,20,20,10,10,26,36,20,18,12,13,23,17,15,20,17,17,19,20,23,11,9,19,19,16,19,21,11,16,13,23,16,9,19,22,28,16,15,19,19,19,14,20,13,21,26,21,17,10,10,25,17,13,21,12,20,17,15,21,14,17,16,17,17,15,10,15,18,21,11,15,20,13,19,15,22,7,16,18,14,21,22,19,21,21,13,21,15,16,24,19,15,18,25,20,22,24,20,29,18,13,16,14,19,23,15,16,18
30,30,40,26,10,1e+08,26,30,20,20,30,10,30,10,0,10,10,20,10,20,36,20,10,16,10,10,20,20,10,0,36,20,10,30,20,40,10,20,10,20,10,20,20,26,26,20,20,10,16,36,10,10,20,30,30,20,26,20,20,30,30,10,30,10,10,30,10,30,10,16,30,30,20,30,20,20,10,10,10,30,26,20,20,6,30,30,20,30,0,10,10,20,10,10,20,10,10,20,26,10,12,15,14,21,16,22,19,14,16,22,11,18,13,17,20,23,11,22,17,13,9,14,18,11,11,12,17,22,17,15,19,15,21,13,16,17,16,28,17,23,15,18,14,18,13,13,13,24,15,11,15,7,22,16,14,13,13,15,20,20,14,11,15,9,20,19,15,21,10,16,14,14,16,17,15,20,11,15,14,13,11,21,15,12,18,22,16,17,21,17,18,13,20,10,10,16,11,20,14,15
10,10,20,46,20,26,1e+08,10,10,10,30,6,30,10,10,30,10,10,10,20,26,20,30,26,10,30,20,20,10,30,40,20,30,20,20,10,20,16,40,20,20,20,20,10,30,30,10,30,20,20,20,10,30,10,40,10,30,20,10,20,10,20,20,30,10,20,20,10,30,20,30,30,30,20,20,30,20,30,20,20,20,30,16,20,36,10,20,10,10,10,20,30,30,10,30,20,30,16,20,10,9,16,19,24,19,9,23,18,14,19,14,19,14,13,12,17,15,28,25,12,16,14,21,13,11,12,20,24,13,10,18,13,21,13,17,17,15,25,13,19,14,14,18,17,13,16,12,21,13,13,14,10,20,17,14,14,11,11,24,20,21,11,10,25,15,14,14,20,12,11,11,17,14,12,15,23,13,15,12,13,18,23,25,15,25,13,21,13,20,16,23,16,23,10,14,16,17,22,14,13
40,16,20,30,10,30,10,1e+08,10,10,16,6,16,10,10,16,10,16,6,10,20,30,20,30,36,10,30,30,10,20,10,10,10,36,46,20,20,20,36,20,20,10,20,16,30,10,10,10,20,16,10,20,20,20,10,20,30,10,10,10,40,6,20,10,10,20,20,10,20,20,20,30,20,10,20,26,26,10,20,0,10,20,20,30,30,30,20,10,36,20,10,10,20,16,30,10,10,30,16,16,16,13,18,15,12,15,20,16,9,26,14,17,15,18,26,13,16,15,16,12,12,11,19,15,8,11,23,27,13,11,19,17,20,10,20,14,17,16,11,23,15,17,16,16,15,10,8,25,13,8,9,7,22,20,12,10,14,24,19,19,15,23,10,10,17,15,13,22,11,14,9,13,14,14,20,18,11,15,15,18,13,22,17,14,12,20,14,19,19,18,16,15,15,10,21,11,12,19,10,19
20,20,20,10,16,20,10,10,1e+08,20,40,20,20,40,30,20,10,20,20,30,20,20,20,10,6,46,20,6,10,26,16,20,16,10,30,26,20,20,10,10,10,36,10,10,10,16,26,10,10,10,16,20,20,6,30,20,20,16,10,30,0,10,10,10,36,26,36,26,16,36,30,20,0,36,36,26,10,20,36,26,30,16,26,16,20,10,36,20,10,20,20,6,6,30,10,16,16,20,20,20,19,15,7,25,5,20,12,13,20,6,17,15,13,12,6,9,20,14,17,16,23,19,19,19,12,17,14,13,18,17,12,19,12,24,9,14,19,15,17,8,15,15,22,18,15,16,17,10,17,16,12,31,15,10,12,18,20,11,13,9,18,14,21,26,13,12,18,9,10,17,18,17,21,12,18,21,20,9,18,14,16,12,11,20,13,13,18,7,16,18,19,23,12,10,15,12,18,11,22,14
20,20,20,20,30,20,10,10,20,1e+08,20,40,20,20,40,16,10,20,20,20,30,10,20,20,26,10,10,20,10,20,10,20,20,20,20,30,20,26,20,20,30,10,10,20,40,20,20,10,10,26,20,30,20,30,10,20,20,30,40,10,16,30,16,20,20,10,20,10,10,10,20,10,20,10,30,20,20,20,30,30,10,10,20,10,40,10,20,20,26,30,20,10,40,16,20,30,10,30,20,10,15,13,19,14,19,15,18,15,14,20,8,18,13,21,18,23,10,21,19,12,12,14,15,13,12,12,22,21,15,14,15,11,20,18,19,17,11,14,17,23,16,13,21,14,19,19,16,20,13,16,19,13,17,18,20,15,14,17,18,18,22,13,12,18,18,19,15,18,10,15,13,12,18,17,12,17,21,21,17,16,13,17,26,14,17,14,23,21,18,10,19,13,21,16,20,12,20,20,15,18
20,36,20,30,10,30,30,16,40,20,1e+08,26,46,10,10,16,0,30,26,10,30,0,10,20,16,30,20,26,10,40,10,20,30,26,36,40,16,26,20,30,30,30,30,36,36,26,40,20,40,26,36,20,20,40,26,30,40,50,20,40,10,26,26,20,50,30,30,36,30,26,30,20,20,26,40,40,30,20,40,20,30,40,36,20,30,20,30,10,16,30,30,30,30,26,40,50,26,26,50,40,17,20,13,25,11,25,15,21,20,19,11,20,12,14,10,22,22,29,22,14,20,20,22,22,13,18,14,25,25,21,23,19,17,22,15,16,16,18,17,18,20,20,21,17,18,22,16,18,17,18,19,23,21,15,20,24,19,19,24,14,20,17,18,22,21,13,28,22,10,20,19,18,24,16,19,18,28,13,20,18,18,28,20,24,16,17,23,16,27,19,28,16,13,12,17,17,20,18,27,16
26,26,6,20,26,10,6,6,20,40,26,1e+08,26,26,20,10,10,36,36,20,10,16,20,56,20,20,0,10,0,20,16,26,16,20,16,20,20,10,20,16,10,20,26,16,26,30,10,26,10,16,20,30,10,20,6,26,20,10,26,10,0,30,26,20,20,10,36,16,36,36,26,6,26,30,16,30,30,26,26,20,10,10,30,16,16,16,10,16,6,10,30,20,10,26,10,30,16,36,30,16,11,16,16,14,6,15,14,18,13,18,12,17,12,16,11,18,13,26,20,13,10,17,17,13,8,13,22,16,16,12,16,13,10,10,6,13,17,18,6,18,13,16,15,19,13,12,15,12,12,11,10,15,21,15,14,13,11,27,19,14,12,17,10,21,24,22,12,15,12,15,10,11,13,13,17,8,17,15,13,11,10,25,18,15,20,20,18,14,19,17,15,12,19,10,25,16,11,13,12,11
10,30,20,30,46,30,30,16,20,20,46,26,1e+08,20,10,16,0,30,20,20,40,20,26,36,20,16,10,10,0,16,40,10,16,36,40,26,30,26,26,16,20,10,26,30,36,30,10,30,20,56,10,10,16,26,20,16,30,26,20,20,16,10,36,16,26,10,10,20,16,40,20,10,36,26,20,36,26,10,16,36,16,16,20,20,26,26,10,26,6,26,36,26,16,30,26,20,16,26,46,20,16,21,12,24,14,17,21,22,16,19,13,22,11,8,8,27,14,30,31,17,14,19,20,17,11,17,20,26,16,13,23,13,21,19,13,17,16,29,15,23,20,14,26,19,13,18,16,18,18,15,20,14,21,15,20,19,18,10,23,24,21,13,14,15,23,16,22,24,9,17,16,17,21,19,18,17,21,18,18,14,19,24,21,16,19,23,18,17,25,21,21,12,21,16,24,18,19,14,22,15
6,20,10,20,36,10,10,10,40,20,10,26,20,1e+08,30,20,10,20,10,30,10,10,10,20,0,30,10,0,0,26,16,10,26,10,20,36,26,10,20,10,20,0,10,20,20,16,16,20,10,10,10,20,10,10,20,0,20,10,0,26,10,10,30,0,10,26,26,16,20,20,20,20,10,16,30,16,30,30,26,10,0,10,36,26,20,20,26,30,10,0,10,16,10,40,10,10,10,10,10,20,20,17,9,25,12,23,14,17,19,13,20,19,7,8,8,13,19,12,18,10,27,18,19,18,12,20,20,12,16,15,20,21,14,24,12,10,16,23,23,13,15,8,26,16,11,16,14,15,25,13,13,26,13,10,12,20,16,11,14,12,20,17,17,22,14,11,16,12,9,20,14,16,25,12,18,19,18,10,19,14,16,16,13,19,12,15,13,13,19,19,23,23,8,9,10,18,18,9,23,18
0,20,20,30,30,0,10,10,30,40,10,20,10,30,1e+08,30,20,10,20,36,20,10,30,10,10,30,16,10,10,16,10,10,20,0,16,20,10,30,20,0,10,0,0,20,20,10,20,10,10,20,20,26,0,20,20,10,20,20,10,20,10,20,10,0,10,26,20,10,10,26,20,20,10,20,26,6,20,20,20,20,16,20,20,10,10,10,10,20,10,10,10,20,20,20,10,10,26,20,10,0,11,11,16,13,20,12,14,12,12,17,15,18,10,14,12,15,12,14,16,7,28,12,14,11,10,11,13,18,13,12,16,9,18,13,19,16,10,16,19,19,13,8,16,12,12,14,11,15,17,11,17,19,6,15,12,17,13,13,12,17,18,9,10,27,11,18,7,13,9,14,11,13,17,17,15,21,20,13,11,12,13,14,21,12,20,11,21,16,11,15,15,23,16,12,11,11,16,20,12,13
6,30,26,26,16,10,30,16,20,16,16,10,16,20,30,1e+08,0,10,0,30,30,20,30,20,30,20,26,10,0,26,20,0,20,10,10,10,20,40,36,16,20,30,16,20,10,20,16,46,30,36,20,20,16,16,20,10,30,26,20,20,30,10,16,10,16,26,20,20,20,30,10,16,20,30,10,16,16,20,20,20,16,20,16,10,16,30,20,20,10,36,20,10,20,10,16,26,26,10,6,10,14,16,18,25,19,11,19,18,19,25,17,17,14,10,6,15,11,23,20,14,23,14,16,11,12,12,12,19,5,11,15,9,20,11,23,21,15,20,29,16,12,10,21,16,14,14,14,14,16,13,13,15,8,18,17,16,12,11,18,18,23,10,13,18,8,8,11,19,13,12,11,13,18,14,15,29,19,14,13,11,15,14,22,14,19,13,15,13,13,13,17,21,22,12,8,18,13,23,17,14
0,10,10,10,0,10,10,10,10,10,0,10,0,10,20,0,1e+08,10,20,10,0,10,0,10,10,20,10,36,26,0,30,20,20,0,10,10,10,10,10,10,10,20,10,6,10,10,10,10,0,20,20,20,20,20,20,0,16,10,0,20,20,20,0,20,6,10,10,20,16,10,10,20,0,20,20,0,20,10,0,10,20,10,10,20,10,10,20,0,20,10,20,20,20,0,20,10,26,20,10,10,15,10,13,3,13,11,11,10,11,6,8,8,21,16,12,10,22,7,9,5,5,10,10,13,14,12,20,7,12,10,12,12,10,11,7,11,11,4,4,9,8,19,8,12,9,13,12,13,11,12,16,10,9,11,11,7,11,15,13,2,6,18,16,7,17,16,15,6,18,12,8,5,5,6,16,5,5,8,12,13,8,6,4,11,12,9,10,10,7,8,5,4,12,12,16,14,10,7,7,10
16,26,10,10,30,20,10,16,20,20,30,36,30,20,10,10,10,1e+08,20,30,10,10,20,26,30,30,10,10,6,40,30,10,26,40,20,40,10,10,20,20,30,10,20,16,30,20,20,20,10,30,16,30,30,30,10,20,30,26,36,10,16,16,40,20,40,20,30,36,30,30,20,20,30,16,30,36,20,10,30,20,16,10,40,26,30,20,20,30,6,10,40,30,30,30,26,16,16,30,30,30,21,15,15,17,14,25,15,20,16,12,22,22,14,11,11,11,21,20,35,15,17,26,15,15,14,18,16,20,24,16,20,21,14,24,14,11,22,31,19,12,21,19,20,17,12,15,15,15,21,15,23,19,21,13,20,19,23,22,17,16,15,19,16,16,17,20,20,16,14,16,17,21,32,18,16,14,20,10,18,11,21,21,16,23,15,19,22,19,27,19,27,16,13,14,22,23,15,10,21,13
20,26,0,30,10,10,10,6,20,20,26,36,20,10,20,0,20,20,1e+08,10,0,0,10,20,16,20,10,40,10,30,20,10,26,20,10,20,20,0,10,10,20,10,20,26,20,20,30,0,0,20,10,20,20,20,0,10,20,10,10,10,20,30,10,20,10,10,10,6,10,10,0,10,20,20,20,20,10,0,10,6,20,6,20,20,10,10,6,10,16,0,30,20,6,26,16,30,16,20,20,20,12,11,18,8,4,12,7,19,11,11,12,13,13,17,15,14,13,19,16,11,10,13,17,13,11,9,15,12,15,15,12,11,10,13,9,12,13,9,7,14,14,11,12,13,7,10,9,10,13,9,11,13,19,12,15,12,12,14,9,9,11,17,12,18,12,15,17,16,10,13,8,10,16,7,15,4,17,12,8,12,9,20,9,10,6,15,9,14,11,15,11,11,15,10,21,11,8,8,9,12
0,0,20,20,16,20,20,10,30,20,10,20,20,30,36,30,10,30,10,1e+08,10,10,20,20,20,36,30,0,10,26,26,10,26,10,16,30,26,16,30,10,20,20,20,0,20,10,20,20,26,16,26,36,20,20,36,10,26,20,20,36,16,10,10,10,30,46,16,26,30,26,36,26,10,40,36,6,20,26,30,30,20,20,26,10,10,20,16,40,0,20,10,10,20,10,20,10,36,6,6,0,14,17,16,23,22,12,16,19,20,13,16,20,10,7,11,9,18,13,22,12,30,13,18,18,13,20,11,15,12,17,13,16,13,20,17,21,18,19,36,10,12,12,23,14,14,20,12,9,16,14,19,27,5,12,16,19,13,13,14,11,22,11,9,24,9,10,16,14,15,16,14,16,24,17,18,23,25,15,18,11,15,10,14,22,14,14,17,10,15,16,26,31,12,13,6,17,17,20,16,16
0,10,40,30,20,36,26,20,20,30,30,10,40,10,20,30,0,10,0,10,1e+08,20,20,26,20,10,16,0,20,0,30,0,40,30,20,30,10,20,30,10,10,10,10,40,30,30,20,30,20,36,20,0,20,30,20,10,30,20,20,20,16,10,26,10,20,20,10,30,30,40,30,20,30,20,10,30,20,10,10,30,16,30,20,10,30,30,20,20,20,26,30,20,30,20,20,20,10,16,40,10,10,13,15,19,21,15,15,16,14,21,12,17,11,14,10,17,11,19,17,14,15,10,14,10,11,10,19,23,11,12,12,11,23,14,20,13,13,22,16,20,11,19,19,12,17,11,11,20,15,15,18,8,12,17,14,16,14,16,15,24,20,11,13,17,12,15,15,20,9,12,15,17,14,17,12,21,15,13,14,10,15,19,18,13,27,15,16,16,21,13,25,17,24,14,14,11,17,19,17,15
26,20,20,20,10,20,20,30,20,10,0,16,20,10,10,20,10,10,0,10,20,1e+08,30,20,20,16,10,20,20,10,20,26,16,30,20,20,20,10,40,30,10,10,30,10,20,30,0,20,10,20,16,10,20,10,10,10,16,20,30,10,16,10,10,10,20,20,10,20,10,20,10,20,20,10,20,30,10,20,10,30,10,20,10,20,20,30,20,10,20,30,20,20,10,10,20,10,10,30,10,30,12,15,17,14,20,15,20,10,14,16,15,12,19,13,15,15,15,17,13,13,10,12,8,12,14,13,19,14,12,9,13,15,16,10,16,13,11,15,12,13,11,17,15,11,8,9,9,24,11,12,6,6,18,13,13,9,11,15,18,14,12,8,13,14,16,16,9,13,12,9,12,14,15,10,14,17,10,12,13,11,13,14,21,13,15,17,13,16,14,17,13,15,17,12,18,9,8,13,9,13
10,20,26,30,10,10,30,20,20,20,10,20,26,10,30,30,0,20,10,20,20,30,1e+08,30,6,10,30,10,6,20,10,0,0,30,10,30,30,16,40,20,30,20,10,20,10,30,20,20,6,10,10,10,20,20,0,20,20,10,10,6,6,10,20,10,20,10,30,20,0,30,0,6,30,30,10,36,0,26,10,30,10,20,20,0,20,30,10,20,16,30,20,10,30,40,20,30,20,36,10,20,15,16,10,16,23,14,14,14,13,12,15,11,20,11,16,12,13,16,22,17,23,21,18,10,12,10,12,8,11,19,20,15,8,9,15,18,15,25,30,17,21,15,22,19,16,13,10,11,17,15,11,9,15,10,20,14,11,11,15,11,22,14,19,20,13,9,20,12,8,16,12,17,28,13,11,20,21,11,12,16,17,16,13,11,11,18,13,8,19,15,15,20,9,13,21,14,9,13,16,18
20,36,20,40,16,16,26,30,10,20,20,56,36,20,10,20,10,26,20,20,26,20,30,1e+08,26,20,10,20,0,30,26,26,20,26,10,20,10,10,30,10,10,20,10,20,36,30,10,30,6,20,10,10,20,20,10,20,26,10,20,10,10,10,26,20,30,10,46,10,30,30,16,16,40,20,20,30,36,30,30,20,20,10,40,10,20,30,10,16,6,10,20,20,10,26,20,30,10,40,30,40,14,15,15,21,17,15,15,16,13,19,17,16,6,17,17,20,15,27,24,14,12,18,19,15,10,17,22,22,21,18,19,14,18,11,14,15,15,24,14,21,19,18,19,19,11,13,11,20,16,10,12,12,27,17,17,14,11,24,19,18,14,15,14,16,24,21,20,16,10,18,11,15,14,11,12,11,18,12,14,13,11,31,17,17,22,20,16,17,21,19,20,15,21,12,22,14,12,17,15,13
36,26,10,6,20,10,10,36,6,26,16,20,20,0,10,30,10,30,16,20,20,20,6,26,1e+08,20,16,36,20,26,30,6,30,20,26,20,10,20,10,40,20,20,36,26,26,10,16,20,30,20,20,20,30,10,10,10,40,20,56,20,40,20,10,20,30,30,6,20,30,30,20,10,6,16,16,16,10,30,30,20,16,20,10,20,20,20,20,10,20,36,10,30,20,10,16,10,20,26,16,26,15,16,19,16,14,17,20,16,16,22,14,20,11,21,19,24,15,16,15,16,6,11,16,12,11,14,16,23,16,11,13,21,19,12,19,20,20,14,8,20,15,20,13,15,14,14,12,22,14,10,16,5,15,19,17,12,15,21,17,20,13,19,15,10,22,24,12,19,11,11,11,11,14,18,20,15,15,18,17,14,12,17,24,11,22,16,25,20,17,14,13,8,25,16,18,14,13,19,15,11
10,10,10,10,6,10,30,10,46,10,30,20,16,30,30,20,20,30,20,36,10,16,10,20,20,1e+08,10,20,10,46,26,20,30,16,36,30,26,16,20,30,20,40,30,10,16,30,30,10,10,26,30,26,30,20,46,20,40,30,20,30,10,20,16,40,26,26,20,20,36,36,26,36,10,36,36,20,30,30,30,30,20,30,26,10,20,10,26,20,10,20,20,30,30,10,16,30,26,26,10,20,25,16,13,26,13,20,13,18,23,6,19,18,16,9,10,13,29,19,21,19,24,22,23,20,16,17,12,10,20,18,22,19,7,25,14,15,16,15,24,16,22,16,24,21,19,21,17,10,21,20,21,29,16,13,21,25,16,7,23,11,20,19,16,25,14,12,23,14,15,19,20,13,25,10,20,22,26,16,19,23,24,13,15,18,14,16,22,7,18,18,28,23,16,11,10,22,21,12,20,14
20,10,30,26,26,20,20,30,20,10,20,0,10,10,16,26,10,10,10,30,16,10,30,10,16,10,1e+08,10,0,20,16,10,26,10,0,10,20,26,30,10,10,16,10,20,10,10,30,30,26,16,20,20,30,10,30,20,20,10,16,36,30,10,10,20,20,30,10,20,20,20,20,16,10,20,10,10,6,20,16,20,26,10,16,20,16,20,30,20,10,36,10,10,20,30,26,20,20,20,20,6,11,19,16,21,21,11,13,16,14,23,16,17,14,17,16,14,8,12,20,12,15,11,9,9,12,13,10,21,12,8,17,10,17,12,20,13,13,16,26,15,9,9,21,12,14,16,11,13,16,10,11,12,8,17,18,14,12,8,18,15,23,11,6,12,10,10,8,20,12,10,10,14,19,15,8,21,18,16,15,9,13,12,19,14,17,17,13,14,15,10,23,21,24,12,6,15,11,21,11,15
20,10,20,20,10,20,20,30,6,20,26,10,10,0,10,10,36,10,40,0,0,20,10,20,36,20,10,1e+08,36,20,16,26,20,10,10,0,20,10,20,20,20,20,20,20,10,10,20,10,10,10,10,16,20,20,20,30,26,20,20,10,30,36,10,20,30,20,0,10,10,10,30,20,30,30,20,10,10,20,30,10,20,10,10,0,20,20,20,20,26,10,10,10,10,6,20,20,26,30,10,20,8,13,27,10,19,9,16,15,11,18,7,11,14,31,20,22,16,17,12,9,5,13,15,14,9,12,16,20,16,18,17,11,14,7,16,17,14,11,10,16,16,15,11,14,8,13,9,17,11,12,14,7,23,22,15,11,7,20,20,15,13,12,15,14,15,16,17,15,13,14,12,14,15,12,16,13,13,18,10,15,10,16,14,7,16,18,14,21,13,13,13,6,24,10,26,10,13,18,10,15
20,10,10,20,20,10,10,10,10,10,10,0,0,0,10,0,26,6,10,10,20,20,6,0,20,10,0,36,1e+08,10,16,20,30,0,20,0,20,10,20,20,10,20,16,6,0,20,20,0,10,20,20,16,10,0,20,10,6,10,16,20,10,20,10,30,20,20,0,10,10,0,10,20,16,10,20,20,10,10,20,10,10,30,0,20,20,16,20,20,20,6,10,10,20,0,20,10,16,10,10,10,8,6,13,4,11,11,16,8,11,4,5,8,17,17,16,8,16,11,7,8,7,8,17,12,7,13,19,10,13,18,15,13,5,8,12,8,22,7,6,4,8,21,9,15,11,9,11,11,8,11,11,7,9,9,8,11,10,20,18,5,5,11,16,8,13,18,11,10,11,8,13,11,6,10,24,4,7,7,11,11,9,5,4,7,7,16,11,13,8,13,4,5,8,11,17,6,11,12,13,8
10,20,10,26,10,0,30,20,26,20,40,20,16,26,16,26,0,40,30,26,0,10,20,30,26,46,20,20,10,1e+08,16,0,26,10,20,36,20,0,30,20,30,30,30,10,10,26,36,20,20,16,40,30,10,20,10,20,20,40,30,16,20,20,26,40,40,20,16,16,50,40,10,10,20,26,40,36,20,20,46,20,10,20,26,36,26,0,26,10,20,20,30,30,20,16,26,40,30,20,30,40,18,21,15,23,12,26,12,24,22,14,21,19,16,13,10,11,16,23,24,19,20,24,23,23,13,11,8,15,21,18,22,20,12,19,16,15,25,14,22,14,24,13,21,18,15,18,14,6,16,13,13,28,14,15,20,25,22,14,23,15,21,21,16,20,15,16,24,19,14,16,18,14,25,16,20,17,28,13,16,14,17,18,20,21,18,16,18,11,17,20,16,19,20,10,15,22,18,19,30,13
0,20,20,20,16,36,40,10,16,10,10,16,40,16,10,20,30,30,20,26,30,20,10,26,30,26,16,16,16,16,1e+08,10,30,20,20,10,26,20,10,20,16,20,10,30,30,20,20,30,26,30,20,30,20,20,50,10,30,10,30,36,10,0,20,10,20,26,10,30,20,36,40,46,10,16,10,26,10,36,30,10,6,20,6,20,20,20,30,10,10,20,20,10,20,26,10,10,30,20,20,20,14,18,16,27,17,15,18,17,11,19,16,23,14,13,6,15,17,20,24,13,14,16,14,13,10,16,17,21,17,18,21,11,24,16,19,15,20,25,18,22,10,24,20,19,13,15,12,24,20,15,19,12,19,14,19,10,14,14,16,18,14,12,17,18,15,15,13,18,18,15,12,18,16,19,21,21,15,11,19,12,14,22,22,17,21,14,22,16,23,17,28,18,24,20,11,16,17,20,15,15
26,20,10,20,20,20,20,10,20,20,20,26,10,10,10,0,20,10,10,10,0,26,0,26,6,20,10,26,20,0,10,1e+08,20,30,20,10,16,26,20,20,10,10,20,20,26,20,10,10,0,10,16,20,16,0,10,50,16,26,10,10,10,26,20,26,20,10,40,10,20,10,20,20,30,20,10,20,40,20,30,20,20,6,30,20,20,20,10,30,20,20,0,10,6,10,20,10,0,36,20,20,11,12,12,15,11,15,19,9,13,11,13,13,11,15,16,13,14,22,19,21,6,13,16,13,8,20,19,17,26,11,13,16,15,10,10,17,16,24,6,11,13,17,15,12,13,14,14,15,10,16,11,7,24,12,15,13,9,13,20,8,4,11,17,13,15,15,15,15,10,15,17,13,12,16,15,8,8,13,14,16,12,25,14,12,12,21,16,16,20,18,15,8,13,8,19,14,12,8,11,9
20,0,30,26,30,10,30,10,16,20,30,16,16,26,20,20,20,26,26,26,40,16,0,20,30,30,26,20,30,26,30,20,1e+08,16,20,26,10,20,30,30,10,40,20,20,20,20,16,20,20,30,40,10,50,30,30,20,20,40,20,20,26,20,16,50,26,16,26,26,36,40,30,30,20,26,16,20,20,30,56,20,20,40,0,36,36,30,26,30,20,16,36,36,60,26,26,20,16,26,20,20,21,19,15,17,16,26,14,19,19,17,15,22,20,17,10,15,28,19,22,16,15,17,20,24,13,16,20,19,22,19,17,18,19,23,21,15,19,19,19,19,17,17,20,18,19,16,17,17,24,16,22,23,14,18,16,24,21,12,15,17,17,20,18,23,15,16,23,23,19,17,20,23,22,17,22,13,20,14,20,22,19,18,21,25,21,18,21,16,20,18,29,15,24,15,14,23,22,16,25,13
30,16,16,20,30,30,20,36,10,20,26,20,36,10,0,10,0,40,20,10,30,30,30,26,20,16,10,10,0,10,20,30,16,1e+08,40,46,20,16,40,36,20,10,30,26,30,30,30,10,10,16,10,20,30,46,10,30,20,36,20,10,16,10,46,16,26,20,20,20,16,20,20,40,36,10,30,40,66,20,20,26,20,30,30,30,30,30,20,30,6,30,20,26,20,16,20,10,10,36,36,20,17,15,12,24,18,21,16,25,19,13,13,19,20,17,13,12,13,26,28,18,15,18,17,18,12,16,18,22,17,17,19,22,16,14,16,13,19,29,22,22,22,17,20,19,14,17,10,16,14,20,15,9,27,13,20,17,15,18,23,14,11,21,11,10,21,14,21,19,7,19,17,16,24,17,14,16,20,16,16,16,21,25,20,18,12,24,14,15,31,20,23,16,13,12,20,18,12,11,21,15
30,30,20,20,36,20,20,46,30,20,36,16,40,20,16,10,10,20,10,16,20,20,10,10,26,36,0,10,20,20,20,20,20,40,1e+08,30,26,10,20,30,20,30,20,20,36,20,20,10,20,30,16,16,30,20,46,10,26,10,20,36,10,10,50,10,20,16,20,20,20,36,46,46,10,10,36,30,20,10,10,10,20,20,36,20,30,20,40,10,16,20,10,20,20,20,40,10,6,20,40,60,19,15,10,31,6,20,10,26,14,14,18,15,18,13,9,14,28,21,21,13,24,18,28,24,9,18,22,22,19,19,29,15,16,15,10,11,18,22,18,16,19,18,27,25,13,18,14,21,18,14,12,18,21,9,15,18,13,15,16,14,13,19,11,17,22,14,18,19,13,17,13,17,22,17,26,19,26,10,19,23,18,22,18,17,12,21,15,12,19,21,22,22,11,15,17,12,19,8,14,16
20,10,20,20,20,40,10,20,26,30,40,20,26,36,20,10,10,40,20,30,30,20,30,20,20,30,10,0,0,36,10,10,26,46,30,1e+08,20,16,30,40,20,20,20,10,20,20,36,20,10,16,10,10,30,60,10,20,20,30,10,20,16,20,36,20,40,40,36,36,30,10,20,40,40,26,30,30,40,20,36,40,10,20,30,26,30,20,46,40,10,30,20,30,20,30,26,10,16,36,20,20,17,15,9,21,18,29,15,20,22,17,16,18,18,18,12,13,20,24,27,17,16,19,17,20,13,14,18,17,21,15,17,24,16,26,17,10,16,31,20,21,25,14,23,19,16,20,15,15,22,17,21,24,22,12,25,28,20,13,19,13,15,14,17,18,16,9,23,17,7,19,19,16,32,18,15,18,26,18,20,13,25,22,20,25,14,25,16,14,27,22,29,18,13,12,15,18,15,13,25,16
20,30,10,20,26,10,20,20,20,20,16,20,30,26,10,20,10,10,20,26,10,20,30,10,10,26,20,20,20,20,26,16,10,20,26,20,1e+08,20,20,20,40,30,10,20,20,20,20,10,16,10,26,26,20,20,16,10,26,10,20,16,10,16,20,20,20,26,10,10,10,26,16,16,10,20,26,26,0,30,10,20,16,10,16,10,20,10,20,10,16,40,10,10,20,30,30,20,10,20,10,20,17,16,12,26,8,15,11,19,13,17,17,19,17,13,19,16,17,24,25,17,23,21,21,13,11,13,16,13,12,24,26,12,16,10,13,13,15,22,24,18,18,14,23,24,13,16,16,18,18,13,15,15,17,18,17,11,11,16,16,13,21,11,18,18,11,12,12,18,13,20,13,16,24,20,21,19,24,14,15,13,12,17,17,23,16,18,18,15,18,14,17,21,19,19,19,9,23,13,16,21
20,40,16,20,36,20,16,20,20,26,26,10,26,10,30,40,10,10,0,16,20,10,16,10,20,16,26,10,10,0,20,26,20,16,10,16,20,1e+08,16,16,16,30,16,30,20,16,20,40,30,26,20,10,16,16,20,36,20,26,10,20,36,16,26,16,16,20,30,26,16,20,20,20,10,10,10,10,16,20,30,36,16,26,10,20,36,26,20,26,20,26,16,6,36,30,10,10,16,26,16,10,16,15,16,23,15,17,23,14,18,22,14,23,16,17,19,17,20,26,23,13,10,13,19,10,10,14,27,21,17,15,18,13,19,18,17,15,17,26,12,14,10,14,20,22,17,16,14,21,15,17,23,9,16,20,19,15,16,17,19,17,11,14,10,21,14,19,15,25,14,14,17,16,18,20,19,17,20,19,13,17,18,27,22,18,16,24,21,15,24,14,21,14,13,12,21,17,17,16,12,11
20,10,30,36,30,10,40,36,10,20,20,20,26,20,20,36,10,20,10,30,30,40,40,30,10,20,30,20,20,30,10,20,30,40,20,30,20,16,1e+08,30,20,30,30,10,10,30,20,30,10,26,0,20,40,10,10,40,20,30,20,20,16,10,16,20,20,16,20,20,20,30,30,10,20,30,10,50,30,20,30,30,20,10,16,10,20,30,20,30,20,30,30,20,20,10,40,20,10,26,26,20,17,17,14,21,27,16,20,24,16,17,14,16,19,15,13,14,10,24,24,17,18,12,15,15,10,13,21,15,13,12,15,18,16,15,20,16,20,20,23,21,18,16,21,13,12,16,11,15,14,12,14,11,16,14,22,17,16,15,32,17,23,17,9,24,16,16,15,17,12,12,17,17,22,13,19,21,24,18,13,15,19,15,26,16,20,18,15,12,24,16,24,20,16,11,21,19,14,16,14,18
10,10,20,10,30,20,20,20,10,20,30,16,16,10,0,16,10,20,10,10,10,30,20,10,40,30,10,20,20,20,20,20,30,36,30,40,20,16,30,1e+08,20,20,56,10,10,10,0,10,20,26,10,0,50,20,20,30,16,50,20,20,16,20,16,20,40,10,10,20,30,10,20,20,26,20,10,20,26,10,30,30,20,20,10,10,30,56,30,36,20,30,20,50,30,10,26,20,20,26,20,30,18,13,10,16,18,16,20,18,20,10,14,18,22,11,13,11,24,18,18,17,12,16,12,16,12,16,19,12,19,10,18,15,13,18,16,12,14,17,19,14,14,15,22,19,14,21,19,14,14,23,18,12,15,15,19,15,15,11,16,11,14,14,13,13,20,19,13,16,13,10,25,17,21,20,21,19,18,15,9,19,19,13,20,15,12,19,12,7,20,15,23,13,14,15,16,19,21,13,14,13
20,10,20,10,16,10,20,20,10,30,30,10,20,20,10,20,10,30,20,20,10,10,30,10,20,20,10,20,10,30,16,10,10,20,20,20,40,16,20,20,1e+08,0,20,10,20,20,10,20,26,30,10,10,36,20,10,16,10,26,20,16,10,16,30,16,10,10,10,20,0,20,10,0,30,10,10,16,0,16,0,10,6,20,20,0,10,10,20,10,16,20,30,30,30,30,10,26,10,20,20,26,14,17,16,25,9,17,9,21,19,14,27,19,11,13,13,12,14,20,25,20,26,26,17,13,11,11,14,14,23,19,24,16,15,13,13,9,19,20,27,19,20,15,23,20,16,12,14,16,20,12,22,14,15,14,18,13,11,12,13,15,20,14,15,14,14,10,17,17,11,18,10,16,25,21,15,14,18,5,15,16,18,14,14,12,15,17,19,11,21,18,20,19,18,18,16,13,22,14,19,11
10,30,30,16,0,20,20,10,36,10,30,20,10,0,0,30,20,10,10,20,10,10,20,20,20,40,16,20,20,30,20,10,40,10,30,20,30,30,30,20,0,1e+08,20,20,20,26,40,20,20,20,50,20,40,26,50,20,10,30,10,50,10,10,10,30,36,10,10,40,36,10,40,40,10,30,30,30,16,40,40,26,20,46,20,30,26,10,50,10,10,26,16,16,46,20,30,30,30,20,30,30,27,17,16,22,13,19,12,12,23,20,10,19,16,19,9,15,26,23,18,17,13,21,22,21,16,13,14,16,17,20,19,17,12,16,17,15,15,14,9,16,22,20,14,18,20,13,19,10,19,22,26,17,19,16,23,18,18,15,22,14,14,21,16,8,16,16,20,18,17,20,20,14,16,10,18,15,20,14,19,21,27,19,19,21,16,18,24,8,16,10,15,13,21,15,11,20,18,22,22,15
36,20,10,10,30,20,20,20,10,10,30,26,26,10,0,16,10,20,20,20,10,30,10,10,36,30,10,20,16,30,10,20,20,30,20,20,10,16,30,56,20,20,1e+08,6,20,30,20,20,30,26,10,30,46,10,20,40,20,40,30,20,30,26,26,20,40,20,10,20,30,30,30,30,26,20,20,20,20,30,30,30,10,20,10,40,30,46,20,26,30,20,30,50,10,10,26,20,10,26,10,40,14,17,16,21,16,17,25,20,26,12,21,21,18,12,16,12,12,24,26,23,10,15,17,18,13,14,14,15,28,11,17,16,14,18,22,18,19,19,16,13,16,14,21,17,16,21,17,13,19,22,17,13,15,12,18,16,15,12,24,14,12,20,12,11,18,16,16,22,14,14,25,15,19,25,17,14,26,16,10,16,18,18,22,18,18,19,14,10,19,16,21,16,15,12,20,20,24,16,15,10
20,46,20,30,30,26,10,16,10,20,36,16,30,20,20,20,6,16,26,0,40,10,20,20,26,10,20,20,6,10,30,20,20,26,20,10,20,30,10,10,10,20,6,1e+08,40,16,20,30,20,30,30,16,20,10,30,20,20,10,20,30,20,20,30,10,10,10,20,10,20,30,20,30,20,10,10,20,10,20,10,10,30,10,26,20,20,20,10,10,16,40,10,20,10,26,26,16,20,10,40,20,12,11,14,23,8,12,18,18,9,22,12,13,18,15,14,21,13,19,20,12,7,14,21,11,9,12,19,26,13,19,17,14,27,11,11,12,19,25,8,16,12,25,16,11,16,14,8,22,19,9,17,6,18,18,15,12,12,12,14,20,7,12,19,17,14,20,16,21,10,15,12,18,15,16,11,12,16,11,13,15,13,27,22,17,25,17,21,19,20,16,18,5,19,18,14,14,11,12,12,12
16,26,10,30,36,26,30,30,10,40,36,26,36,20,20,10,10,30,20,20,30,20,10,36,26,16,10,10,0,10,30,26,20,30,36,20,20,20,10,10,20,20,20,40,1e+08,30,20,20,30,26,20,30,20,20,30,16,20,20,26,30,10,0,40,10,16,20,30,20,20,20,30,30,30,10,30,30,30,30,30,20,26,20,36,30,40,10,20,20,16,16,10,30,10,26,20,20,10,20,40,20,14,17,14,25,13,16,19,19,13,25,13,21,7,14,13,23,13,25,26,12,9,14,16,12,10,16,20,29,19,12,15,22,28,13,15,11,17,31,11,21,17,16,23,17,17,13,10,23,15,11,13,6,24,20,14,12,16,13,19,18,6,16,14,15,18,16,19,20,12,17,12,17,18,17,14,16,15,10,22,17,15,26,23,19,15,19,24,21,23,18,19,9,18,12,20,19,14,16,16,17
20,16,30,40,30,20,30,10,16,20,26,30,30,16,10,20,10,20,20,10,30,30,30,30,10,30,10,10,20,26,20,20,20,30,20,20,20,16,30,10,20,26,30,16,30,1e+08,10,10,10,16,30,20,10,36,0,30,30,30,20,0,10,30,30,30,36,10,30,20,26,30,20,10,30,20,20,30,20,10,20,56,10,20,20,46,30,20,6,20,30,10,46,46,20,10,10,26,10,30,40,26,20,17,12,12,15,18,14,19,22,18,15,15,17,14,20,15,21,25,21,16,15,24,14,20,19,15,18,16,17,19,18,19,15,17,13,13,16,16,15,16,21,15,15,23,14,13,17,16,16,18,19,15,20,12,16,17,20,14,15,18,14,22,20,16,14,16,27,17,12,21,18,18,19,15,15,17,19,13,18,16,19,19,15,17,20,19,22,15,17,22,13,11,19,11,21,17,17,9,26,11
20,30,30,16,10,20,10,10,26,20,40,10,10,16,20,16,10,20,30,20,20,0,20,10,16,30,30,20,20,36,20,10,16,30,20,36,20,20,20,0,10,40,20,20,20,10,1e+08,20,20,20,20,40,10,30,40,20,26,10,20,50,20,10,30,20,30,40,26,36,20,30,30,40,10,36,50,40,10,20,36,20,26,30,20,30,20,10,36,6,10,20,10,20,30,30,30,30,26,20,40,20,16,17,16,20,12,21,15,20,20,18,19,17,16,18,14,13,16,26,21,15,17,16,21,25,13,16,8,16,21,19,18,24,14,20,17,15,18,18,13,18,22,16,18,15,20,21,13,15,20,19,14,27,17,18,18,22,21,13,29,13,12,19,12,19,14,15,23,24,15,21,16,10,25,20,19,16,26,14,19,15,15,19,20,23,15,19,19,11,16,21,24,22,18,10,14,18,14,21,19,16
10,20,16,16,20,10,30,10,10,10,20,26,30,20,10,46,10,20,0,20,30,20,20,30,20,10,30,10,0,20,30,10,20,10,10,20,10,40,30,10,20,20,20,30,20,10,20,1e+08,40,20,20,20,20,10,20,30,20,30,16,20,20,0,20,10,10,40,30,30,20,30,20,20,30,40,20,26,10,30,20,40,16,20,20,20,30,30,30,20,10,36,40,10,20,40,20,30,20,20,10,20,13,21,17,26,22,17,22,18,20,25,19,20,6,11,4,18,15,32,32,18,17,16,17,10,9,19,17,25,13,9,18,18,24,14,21,18,15,33,18,15,16,17,27,11,15,17,16,17,23,10,15,12,18,18,17,18,12,14,27,17,16,12,8,21,14,14,9,25,11,14,13,18,23,18,19,20,19,12,15,10,21,25,29,19,22,21,20,14,23,21,23,17,17,12,11,22,11,22,12,14
20,10,10,16,26,16,20,20,10,10,40,10,20,10,10,30,0,10,0,26,20,10,6,6,30,10,26,10,10,20,26,0,20,10,20,10,16,30,10,20,26,20,30,20,30,10,20,40,1e+08,30,26,40,10,10,20,20,30,10,30,26,20,0,10,10,20,36,6,20,30,30,40,36,10,26,26,26,10,26,30,10,10,40,6,30,26,20,20,10,20,26,10,20,20,16,20,40,36,10,30,10,10,20,17,28,12,14,20,21,16,20,19,22,6,15,18,16,15,26,23,16,23,14,22,16,10,17,15,24,12,11,18,14,22,15,23,19,16,19,17,13,12,15,23,13,15,20,12,17,17,12,15,18,12,17,16,17,14,11,16,18,17,12,13,17,8,11,11,23,12,15,14,21,14,20,20,24,21,14,18,8,14,23,22,16,19,16,18,13,18,20,30,22,20,15,7,12,21,20,12,16
16,30,16,0,16,36,20,16,10,26,26,16,56,10,20,36,20,30,20,16,36,20,10,20,20,26,16,10,20,16,30,10,30,16,30,16,10,26,26,26,30,20,26,30,26,16,20,20,30,1e+08,40,10,26,26,40,16,40,26,20,30,26,20,36,16,16,20,10,20,26,30,20,30,16,16,20,16,26,20,26,26,26,16,30,30,26,16,20,16,26,26,26,36,36,20,16,20,16,16,16,20,22,19,10,21,14,22,18,22,21,19,15,16,16,13,13,20,19,23,31,19,12,17,24,16,13,17,22,18,16,15,24,16,18,19,13,12,20,27,17,18,17,16,22,20,16,22,16,15,23,15,22,8,19,15,21,20,17,14,22,19,14,22,12,12,21,17,18,23,12,16,17,16,24,19,25,16,23,14,15,17,23,18,21,17,18,18,18,9,24,20,16,14,15,13,15,20,18,13,19,15
10,20,10,16,10,10,20,10,16,20,36,20,10,10,20,20,20,16,10,26,20,16,10,10,20,30,20,10,20,40,20,16,40,10,16,10,26,20,0,10,10,50,10,30,20,30,20,20,26,40,1e+08,36,30,20,66,10,16,20,20,56,20,10,10,20,30,36,16,30,50,26,26,26,20,10,36,10,20,30,46,30,26,30,20,30,16,10,40,0,36,20,20,16,40,10,30,30,26,10,20,30,21,25,14,16,13,18,13,18,19,23,14,21,12,13,12,11,27,21,22,17,14,16,27,17,14,19,18,19,14,25,26,19,19,21,16,12,19,16,15,18,15,15,17,18,21,21,16,17,20,17,24,23,15,17,14,18,23,14,21,16,15,18,17,16,18,11,20,20,16,18,18,13,20,15,25,17,20,8,18,21,20,20,17,22,16,14,24,9,17,18,19,16,15,13,13,18,18,20,25,18
10,20,10,16,0,10,10,20,20,30,20,30,10,20,26,20,20,30,20,36,0,10,10,10,20,26,20,16,16,30,30,20,10,20,16,10,26,10,20,0,10,20,30,16,30,20,40,20,40,10,36,1e+08,10,10,36,20,26,10,30,30,20,20,20,20,10,26,20,26,30,26,36,36,10,20,46,20,20,20,30,20,20,30,20,30,26,0,20,0,16,30,10,10,20,10,20,30,36,10,20,20,11,19,16,17,15,17,14,18,13,22,18,17,15,13,12,11,15,21,18,10,22,14,19,16,10,19,10,20,12,20,16,20,17,16,17,18,17,12,14,17,17,17,17,17,15,18,13,12,22,16,15,22,11,12,13,16,22,14,26,14,15,21,18,17,16,11,12,20,15,20,13,7,20,19,19,20,23,13,20,12,12,17,21,20,14,15,14,12,12,19,21,20,13,12,15,13,16,21,15,19
20,10,30,6,20,20,30,20,20,20,20,10,16,10,0,16,20,30,20,20,20,20,20,20,30,30,30,20,10,10,20,16,50,30,30,30,20,16,40,50,36,40,46,20,20,10,10,20,10,26,30,10,1e+08,10,30,26,20,26,10,40,30,26,16,50,20,10,10,10,30,40,20,30,16,20,20,20,20,30,30,20,20,20,10,30,30,26,40,20,20,30,20,20,30,10,36,16,10,26,20,36,19,18,13,21,18,19,19,17,21,13,18,21,21,13,12,11,24,23,24,21,10,21,15,18,10,15,19,17,29,10,16,16,17,26,21,14,12,17,19,14,21,18,22,21,24,22,20,14,18,25,23,14,14,13,21,20,19,12,24,14,15,25,14,11,19,14,20,20,16,18,25,19,19,18,22,12,23,16,14,23,27,16,23,19,20,19,21,9,23,12,25,16,20,14,16,26,18,17,17,15
20,20,20,30,20,30,10,20,6,30,40,20,26,10,20,16,20,30,20,20,30,10,20,20,10,20,10,20,0,20,20,0,30,46,20,60,20,16,10,20,20,26,10,10,20,36,30,10,10,26,20,10,10,1e+08,10,20,20,50,20,20,16,20,26,20,36,30,10,30,16,10,10,20,40,20,30,30,26,10,10,56,16,36,20,10,40,10,20,20,10,20,30,36,36,20,26,20,10,16,40,10,20,16,13,20,19,16,12,22,19,18,10,15,12,18,14,15,17,24,22,17,15,22,19,22,19,11,12,14,16,18,18,20,15,16,14,11,12,20,17,22,23,15,21,17,17,18,17,15,16,22,28,17,20,12,19,22,23,16,17,14,17,22,15,8,14,8,29,19,10,22,16,15,26,25,10,20,23,18,18,17,23,14,19,21,13,16,19,15,23,20,23,16,14,18,15,20,20,14,25,16
10,20,20,6,16,30,40,10,30,10,26,6,20,20,20,20,20,10,0,36,20,10,0,10,10,46,30,20,20,10,50,10,30,10,46,10,16,20,10,20,10,50,20,30,30,0,40,20,20,40,66,36,30,10,1e+08,10,36,20,10,86,20,10,20,10,10,36,10,40,30,46,66,46,10,20,26,20,10,40,36,20,36,20,26,30,36,20,70,10,20,26,20,10,20,20,30,10,26,10,30,20,20,22,15,28,14,16,18,24,17,23,17,21,14,14,7,14,27,20,23,12,23,17,20,19,8,17,17,20,14,19,25,15,19,18,15,15,18,23,18,16,14,19,21,21,17,25,16,18,24,18,22,21,20,18,15,22,16,14,23,15,14,18,8,22,22,18,9,22,19,18,19,12,20,17,28,21,20,9,16,16,20,18,18,21,18,16,19,12,19,20,27,22,19,17,11,18,20,24,17,20
20,20,20,26,30,20,10,20,20,20,30,26,16,0,10,10,0,20,10,10,10,10,20,20,10,20,20,30,10,20,10,50,20,30,10,20,10,36,40,30,16,20,40,20,16,30,20,30,20,16,10,20,26,20,10,1e+08,10,36,10,20,26,26,30,36,50,20,30,20,20,10,40,10,30,30,20,30,30,30,50,30,20,10,30,0,30,36,10,40,20,20,10,20,10,10,40,40,10,26,30,20,12,13,13,20,23,18,18,15,19,13,15,17,9,13,19,12,11,26,25,24,16,17,20,12,10,15,11,14,31,14,16,16,7,15,18,16,18,23,18,14,19,11,20,16,19,14,13,8,19,17,17,14,18,11,22,18,12,11,24,13,16,11,14,16,14,16,15,19,9,17,20,12,20,20,11,17,20,16,13,21,19,23,17,11,14,24,18,9,25,15,18,14,17,8,13,23,17,12,16,9
20,10,20,30,10,26,30,30,20,20,40,20,30,20,20,30,16,30,20,26,30,16,20,26,40,40,20,26,6,20,30,16,20,20,26,20,26,20,20,16,10,10,20,20,20,30,26,20,30,40,16,26,20,20,36,10,1e+08,30,20,30,20,10,20,20,10,10,20,26,20,36,36,10,30,20,16,10,10,10,20,30,26,10,10,10,20,10,20,10,10,20,30,20,20,16,20,20,16,46,20,20,10,20,19,20,12,23,17,20,12,23,14,21,9,19,8,22,18,28,26,15,21,17,19,16,11,21,12,22,13,20,21,16,20,17,14,16,11,20,19,24,16,18,21,17,12,21,15,20,22,13,20,20,19,18,20,20,12,15,19,18,13,12,14,20,19,12,14,21,13,19,12,12,25,15,19,22,22,15,21,14,15,18,15,18,18,13,20,13,23,24,27,18,18,15,13,11,20,16,16,21
10,10,20,40,30,20,20,10,16,30,50,10,26,10,20,26,10,26,10,20,20,20,10,10,20,30,10,20,10,40,10,26,40,36,10,30,10,26,30,50,26,30,40,10,20,30,10,30,10,26,20,10,26,50,20,36,30,1e+08,20,20,16,30,26,36,60,30,10,30,20,10,30,10,26,20,10,30,26,20,30,80,16,30,10,10,30,10,30,40,40,20,30,46,30,10,16,46,30,36,36,36,21,20,14,20,14,24,17,15,23,14,16,21,12,14,16,12,20,24,23,15,12,24,16,19,15,13,12,14,22,15,18,18,15,27,18,17,17,22,16,16,19,13,21,15,19,20,21,16,17,14,24,16,19,18,19,20,21,10,22,15,14,17,18,13,17,16,26,18,11,17,20,23,24,23,12,17,20,17,16,20,23,16,19,22,14,18,26,15,26,24,25,8,15,17,11,20,19,13,21,12
26,20,16,10,10,20,10,10,10,40,20,26,20,0,10,20,0,36,10,20,20,30,10,20,56,20,16,20,16,30,30,10,20,20,20,10,20,10,20,20,20,10,30,20,26,20,20,16,30,20,20,30,10,20,10,10,20,20,1e+08,10,20,10,20,20,20,10,10,20,16,20,10,10,20,10,30,26,20,10,20,10,10,30,20,30,20,10,10,10,16,20,20,20,20,16,26,20,30,20,20,20,11,12,21,14,17,18,21,17,13,19,12,17,13,17,19,25,13,16,21,13,13,13,15,11,14,12,23,19,15,14,16,15,18,14,20,18,21,14,16,17,12,25,13,15,14,13,11,20,12,11,17,9,18,19,16,10,15,25,20,20,10,16,12,12,20,22,15,16,14,16,11,11,15,16,12,20,14,17,15,13,9,23,20,17,21,15,20,23,19,11,14,14,20,12,17,13,11,21,16,11
20,20,26,6,16,30,20,10,30,10,40,10,20,26,20,20,20,10,10,36,20,10,6,10,20,30,36,10,20,16,36,10,20,10,36,20,16,20,20,20,16,50,20,30,30,0,50,20,26,30,56,30,40,20,86,20,30,20,10,1e+08,30,0,30,20,20,26,20,46,30,36,60,56,10,36,40,26,10,40,40,20,36,30,36,30,36,20,70,10,10,26,10,10,20,30,20,10,26,10,20,20,18,25,15,27,11,17,19,21,19,19,17,20,15,15,8,12,26,22,25,14,21,19,22,18,9,20,14,18,16,18,25,17,19,20,17,14,17,24,17,14,16,17,24,18,21,23,14,17,25,23,19,19,17,15,15,23,21,13,28,17,20,21,9,23,22,17,14,20,18,20,20,17,22,20,25,19,23,13,17,19,22,19,20,22,21,17,21,15,21,17,27,23,21,18,9,20,19,22,13,19
30,20,30,10,26,30,10,40,0,16,10,0,16,10,10,30,20,16,20,16,16,16,6,10,40,10,30,30,10,20,10,10,26,16,10,16,10,36,16,16,10,10,30,20,10,10,20,20,20,26,20,20,30,16,20,26,20,16,20,30,1e+08,30,26,20,20,20,10,26,40,30,20,20,36,20,10,10,16,10,20,16,26,26,0,10,36,36,20,6,30,26,26,16,26,10,20,10,20,26,26,10,17,19,18,16,18,21,23,19,14,26,15,15,18,18,16,16,14,14,15,16,8,9,19,13,10,13,16,25,11,14,23,17,23,11,18,22,21,16,12,18,14,12,15,22,14,16,13,17,15,14,25,10,8,22,17,15,17,20,20,23,14,17,13,8,15,16,16,23,9,13,16,13,16,21,21,18,17,23,14,17,19,14,19,17,17,18,13,19,17,16,18,13,22,12,16,14,15,18,14,16
20,10,20,10,10,10,20,6,10,30,26,30,10,10,20,10,20,16,30,10,10,10,10,10,20,20,10,36,20,20,0,26,20,10,10,20,16,16,10,20,16,10,26,20,0,30,10,0,0,20,10,20,26,20,10,26,10,30,10,0,30,1e+08,10,10,10,6,10,0,10,10,0,10,26,10,10,30,20,26,20,20,10,20,10,20,20,16,10,20,30,10,30,20,10,0,10,10,20,26,20,20,12,10,20,8,18,10,24,16,14,19,13,11,14,20,12,18,12,10,8,14,8,13,12,11,5,9,16,11,18,7,10,9,10,10,17,18,18,6,11,15,9,17,12,12,12,17,16,18,11,16,16,12,9,13,12,14,14,18,16,11,13,16,17,10,17,14,10,12,11,11,17,11,9,15,18,13,10,18,11,13,9,9,14,10,11,10,10,16,11,14,13,5,19,9,21,15,10,12,9,15
26,30,16,20,26,30,20,20,10,16,26,26,36,30,10,16,0,40,10,10,26,10,20,26,10,16,10,10,10,26,20,20,16,46,50,36,20,26,16,16,30,10,26,30,40,30,30,20,10,36,10,20,16,26,20,30,20,26,20,30,26,10,1e+08,16,16,30,20,30,26,30,20,40,36,10,30,36,46,40,26,26,26,16,40,30,56,30,20,30,6,26,26,46,16,40,26,10,6,26,36,30,20,16,13,25,22,20,21,25,24,19,20,20,17,14,10,17,15,26,28,17,18,19,20,18,13,16,18,22,17,12,22,23,18,16,15,10,21,35,21,16,20,16,25,20,15,23,16,22,23,15,18,12,20,12,22,18,23,13,19,18,14,21,12,18,20,18,17,23,10,18,19,18,25,20,27,16,23,16,15,14,21,23,21,19,16,22,17,18,27,26,25,18,11,14,17,19,15,12,16,17
30,20,10,36,10,10,30,10,10,20,20,20,16,0,0,10,20,20,20,10,10,10,10,20,20,40,20,20,30,40,10,26,50,16,10,20,20,16,20,20,16,30,20,10,10,30,20,10,10,16,20,20,50,20,10,36,20,36,20,20,20,10,16,1e+08,40,30,10,10,40,20,10,10,10,30,10,20,36,30,20,30,20,26,10,0,26,20,10,10,30,20,10,30,36,6,30,26,20,36,26,16,17,14,15,13,13,17,11,16,20,11,20,14,13,12,20,10,17,20,21,18,10,24,24,20,10,11,15,15,21,18,19,17,7,18,14,13,18,12,13,15,20,15,12,22,18,17,19,5,14,18,25,12,15,11,22,22,13,13,23,11,17,26,12,12,16,15,26,19,15,19,21,18,12,15,20,15,20,14,14,20,26,16,15,11,19,20,22,10,19,15,11,8,16,16,17,25,16,14,21,7
30,20,30,20,40,10,10,10,36,20,50,20,26,10,10,16,6,40,10,30,20,20,20,30,30,26,20,30,20,40,20,20,26,26,20,40,20,16,20,40,10,36,40,10,16,36,30,10,20,16,30,10,20,36,10,50,10,60,20,20,20,10,16,40,1e+08,20,16,36,46,10,30,10,20,36,40,30,26,30,56,46,20,26,20,6,20,20,20,30,20,20,20,46,16,10,46,40,30,16,30,20,24,14,12,16,20,24,14,14,26,11,12,15,12,14,21,15,18,25,23,17,17,22,21,22,16,16,11,12,23,25,18,24,6,23,14,14,18,15,18,14,23,14,17,21,17,17,19,7,14,19,21,20,17,9,20,20,24,11,21,15,16,16,20,16,16,17,29,16,12,20,22,14,24,19,14,17,24,16,17,19,21,23,18,17,17,21,24,12,22,13,17,13,18,11,17,22,16,21,27,12
20,10,20,26,26,30,20,20,26,10,30,10,10,26,26,26,10,20,10,46,20,20,10,10,30,26,30,20,20,20,26,10,16,20,16,40,26,20,16,10,10,10,20,10,20,10,40,40,36,20,36,26,10,30,36,20,10,30,10,26,20,6,30,30,20,1e+08,10,36,30,16,26,26,20,46,36,26,10,30,20,40,20,30,36,16,30,10,30,20,10,30,20,20,20,30,26,20,26,10,10,0,13,17,14,25,21,18,14,18,21,22,16,22,8,14,18,13,15,15,25,15,20,13,20,14,12,18,10,23,16,15,17,24,14,19,19,18,16,23,24,14,17,12,23,12,16,14,13,18,24,10,16,19,8,15,16,22,17,11,17,11,21,9,12,21,8,12,13,23,14,13,13,15,23,25,18,19,20,12,17,10,23,15,24,22,17,18,22,13,16,13,24,20,12,14,9,14,18,18,16,19
26,20,40,20,20,10,20,20,36,20,30,36,10,26,20,20,10,30,10,16,10,10,30,46,6,20,10,0,0,16,10,40,26,20,20,36,10,30,20,10,10,10,10,20,30,30,26,30,6,10,16,20,10,10,10,30,20,10,10,20,10,10,20,10,16,10,1e+08,16,16,20,20,20,20,26,20,20,30,20,36,20,20,10,30,10,20,20,16,30,0,10,20,10,10,30,10,10,16,40,20,20,13,15,8,17,5,20,15,14,11,15,14,15,6,11,12,12,15,25,20,14,20,15,17,17,8,21,16,17,21,18,11,22,16,19,11,13,13,23,16,15,18,12,17,17,16,14,11,15,16,14,9,21,27,19,14,23,13,19,15,16,20,6,13,23,17,13,18,14,8,20,14,11,25,9,15,18,20,12,15,15,16,27,15,19,17,20,19,11,22,21,25,15,14,7,18,14,12,13,14,11
20,10,30,10,20,30,10,10,26,10,36,16,20,16,10,20,20,36,6,26,30,20,20,10,20,20,20,10,10,16,30,10,26,20,20,36,10,26,20,20,20,40,20,10,20,20,36,30,20,20,30,26,10,30,40,20,26,30,20,46,26,0,30,10,36,36,16,1e+08,6,10,40,10,30,26,26,10,10,10,26,40,36,40,20,30,40,20,46,30,0,30,30,30,30,26,20,20,26,26,30,20,24,18,14,19,19,26,9,13,23,13,18,18,14,13,9,14,19,17,27,20,16,16,19,15,15,19,10,16,19,18,20,28,15,20,16,17,17,29,29,17,20,17,20,17,18,20,16,14,23,18,26,21,22,15,20,20,21,10,16,15,17,23,14,14,15,14,22,14,11,19,19,17,31,21,14,20,18,11,20,20,21,19,14,21,13,19,22,11,25,17,27,19,16,15,8,21,16,15,23,15
10,10,20,16,20,10,30,20,16,10,30,36,16,20,10,20,16,30,10,30,30,10,0,30,30,36,20,10,10,50,20,20,36,16,20,30,10,16,20,30,0,36,30,20,20,26,20,20,30,26,50,30,30,16,30,20,20,20,16,30,40,10,26,40,46,30,16,6,1e+08,50,30,10,20,26,30,20,30,20,56,16,30,36,10,36,16,40,20,20,20,20,20,46,36,20,20,30,30,26,30,30,25,17,13,18,13,24,18,23,25,15,19,18,19,15,9,11,21,20,24,17,12,13,22,23,12,14,16,19,25,16,9,23,15,22,15,13,24,17,12,17,17,17,19,16,17,18,14,12,18,15,21,26,16,13,17,24,24,12,21,16,16,24,16,18,19,17,26,23,13,13,18,20,20,17,22,15,22,14,21,17,18,17,20,23,20,16,20,12,19,23,23,16,21,9,12,26,16,17,26,14
10,20,20,30,16,16,20,20,36,10,26,36,40,20,26,30,10,30,10,26,40,20,30,30,30,36,20,10,0,40,36,10,40,20,36,10,26,20,30,10,20,10,30,30,20,30,30,30,30,30,26,26,40,10,46,10,36,10,20,36,30,10,30,20,10,16,20,10,50,1e+08,46,26,20,20,26,30,16,20,30,20,26,20,16,20,16,20,10,10,10,20,30,20,30,30,20,20,26,40,20,20,16,20,16,29,12,16,18,29,19,23,24,21,13,14,8,12,16,26,26,15,23,14,25,22,9,16,19,26,18,14,24,17,17,16,16,19,18,25,19,19,20,18,27,19,14,22,14,18,21,16,17,20,16,17,20,22,16,15,22,22,16,20,14,25,22,16,16,20,15,18,13,18,22,22,24,24,32,12,18,14,15,18,20,17,23,15,19,15,20,25,27,25,23,18,17,18,23,19,20,18
16,10,40,30,46,30,30,20,30,20,30,26,20,20,20,10,10,20,0,36,30,10,0,16,20,26,20,30,10,10,40,20,30,20,46,20,16,20,30,20,10,40,30,20,30,20,30,20,40,20,26,36,20,10,66,40,36,30,10,60,20,0,20,10,30,26,20,40,30,46,1e+08,36,10,30,26,30,20,30,56,30,36,20,20,30,26,10,50,30,20,26,10,20,10,20,40,20,26,30,50,20,15,20,15,25,13,16,21,23,17,23,17,23,6,16,8,11,13,26,24,12,23,14,22,18,8,19,13,28,17,14,18,17,19,16,16,16,13,22,17,16,14,18,21,14,16,20,14,18,19,16,17,18,25,16,16,19,13,13,24,18,13,15,13,25,16,18,15,20,16,19,19,16,20,18,18,23,23,11,20,13,14,23,18,18,21,20,20,15,24,22,28,21,22,17,10,16,20,20,14,21
26,20,10,10,26,30,30,30,20,10,20,6,10,20,20,16,20,20,10,26,20,20,6,16,10,36,16,20,20,10,46,20,30,40,46,40,16,20,10,20,0,40,30,30,30,10,40,20,36,30,26,36,30,20,46,10,10,10,10,56,20,10,40,10,10,26,20,10,10,26,36,1e+08,10,20,46,20,30,20,20,20,26,0,26,30,36,30,40,20,10,16,10,10,20,20,10,10,0,20,10,20,20,19,12,30,10,18,18,22,17,23,19,21,14,18,8,15,21,21,21,14,20,16,22,21,7,19,18,24,16,17,27,21,26,19,14,14,15,27,19,18,15,15,24,25,15,18,15,20,22,11,16,18,21,18,13,17,20,13,23,12,14,18,13,17,19,17,15,21,18,18,17,15,19,18,29,23,19,11,17,17,20,21,19,22,14,18,24,17,23,25,28,24,11,13,13,23,18,16,15,23
10,20,10,20,20,20,30,20,0,20,20,26,36,10,10,20,0,30,20,10,30,20,30,40,6,10,10,30,16,20,10,30,20,36,10,40,10,10,20,26,30,10,26,20,30,30,10,30,10,16,20,10,16,40,10,30,30,26,20,10,36,26,36,10,20,20,20,30,20,20,10,10,1e+08,20,10,10,20,10,20,30,20,20,20,10,30,36,0,26,6,10,30,40,10,20,10,20,20,16,26,20,12,11,14,16,18,12,16,23,16,16,13,15,11,11,16,14,12,24,26,18,14,16,20,13,11,15,18,15,24,17,21,14,13,12,17,16,16,25,20,15,18,15,22,15,13,19,10,16,16,19,18,13,22,11,14,18,14,11,17,15,14,14,14,16,13,12,24,19,8,17,18,18,24,20,10,17,19,11,12,17,17,22,14,13,13,24,13,12,23,18,22,15,16,13,19,19,22,10,22,10
20,10,30,26,6,30,20,10,36,10,26,30,26,16,20,30,20,16,20,40,20,10,30,20,16,36,20,30,10,26,16,20,26,10,10,26,20,10,30,20,10,30,20,10,10,20,36,40,26,16,10,20,20,20,20,30,20,20,10,36,20,10,10,30,36,46,26,26,26,20,30,20,20,1e+08,16,36,30,30,26,30,20,10,20,10,20,20,26,40,20,20,10,0,10,16,40,30,26,20,20,10,17,20,19,26,20,21,17,16,19,14,16,20,12,17,13,18,19,25,26,19,24,23,24,19,12,16,17,13,24,16,18,21,10,22,16,20,22,30,20,16,24,11,26,13,20,19,17,6,25,15,13,19,17,15,23,25,14,11,26,14,22,17,15,24,14,15,23,13,13,22,17,15,25,14,18,21,23,17,16,15,22,14,19,19,19,19,18,13,20,19,23,20,19,13,11,19,11,16,19,16
26,30,10,26,10,20,20,20,36,30,40,16,20,30,26,10,20,30,20,36,10,20,10,20,16,36,10,20,20,40,10,10,16,30,36,30,26,10,10,10,10,30,20,10,30,20,50,20,26,20,36,46,20,30,26,20,16,10,30,40,10,10,30,10,40,36,20,26,30,26,26,46,10,16,1e+08,20,20,20,30,10,30,40,30,46,20,20,40,10,16,20,10,10,10,20,30,20,26,10,20,20,14,17,18,17,13,16,14,21,13,19,16,15,15,19,17,17,23,21,19,10,18,21,23,21,10,22,16,24,22,24,22,22,26,19,14,15,13,15,14,20,20,17,21,21,17,17,14,15,19,17,18,21,20,18,14,22,22,14,22,14,20,15,17,18,20,14,23,20,16,22,19,11,27,18,23,20,24,13,22,17,15,25,18,26,14,19,24,16,19,18,22,20,15,15,15,14,19,22,20,18
30,30,26,36,20,20,30,26,26,20,40,30,36,16,6,16,0,36,20,6,30,30,36,30,16,20,10,10,20,36,26,20,20,40,30,30,26,10,50,20,16,30,20,20,30,30,40,26,26,16,10,20,20,30,20,30,10,30,26,26,10,30,36,20,30,26,20,10,20,30,30,20,10,36,20,1e+08,40,36,30,10,20,30,46,20,36,26,10,26,10,20,30,20,20,26,50,30,10,30,50,30,15,17,16,29,18,15,20,21,19,15,16,20,16,14,12,17,17,24,29,20,14,20,24,18,10,12,19,19,16,17,20,16,16,12,17,15,24,27,18,17,25,17,22,17,14,18,14,17,18,10,11,12,20,11,21,20,13,19,27,13,17,20,15,20,19,13,22,20,11,18,15,23,19,17,21,20,26,17,11,20,18,24,19,17,16,19,16,18,28,18,26,16,17,14,28,17,17,12,17,18
40,20,10,20,40,10,20,26,10,20,30,30,26,30,20,16,20,20,10,20,20,10,0,36,10,30,6,10,10,20,10,40,20,66,20,40,0,16,30,26,0,16,20,10,30,20,10,10,10,26,20,20,20,26,10,30,10,26,20,10,16,20,46,36,26,10,30,10,30,16,20,30,20,30,20,40,1e+08,30,30,20,30,20,40,20,30,20,10,30,26,20,10,20,10,20,26,20,26,16,36,30,15,14,13,20,15,18,20,18,19,13,12,16,13,12,13,13,15,24,28,14,9,13,18,16,9,11,22,20,14,11,14,17,15,16,16,13,20,26,13,18,19,14,23,16,11,22,15,16,16,14,15,7,26,11,20,19,18,16,27,10,14,19,11,12,19,16,18,14,11,13,16,14,19,12,15,17,20,16,11,15,16,28,18,15,13,20,13,12,31,16,25,10,12,10,13,17,12,8,17,16
26,20,20,26,20,10,30,10,20,20,20,26,10,30,20,20,10,10,0,26,10,20,26,30,30,30,20,20,10,20,36,20,30,20,10,20,30,20,20,10,16,40,30,20,30,10,20,30,26,20,30,20,30,10,40,30,10,20,10,40,10,26,40,30,30,30,20,10,20,20,30,20,10,30,20,36,30,1e+08,40,30,16,20,40,30,26,20,30,30,20,16,0,16,10,56,20,20,10,20,20,30,14,22,14,27,19,14,16,15,21,20,20,20,10,14,14,16,20,25,33,19,23,19,20,14,9,13,16,19,13,15,17,16,16,16,17,14,18,35,23,16,18,10,27,13,13,21,16,15,23,10,14,9,21,17,20,17,10,9,25,13,18,15,11,17,17,13,12,20,13,20,14,16,26,15,18,15,20,13,14,16,17,27,23,19,15,22,18,10,28,19,28,23,17,14,10,19,16,17,17,16
16,10,30,26,30,10,20,20,36,30,40,26,16,26,20,20,0,30,10,30,10,10,10,30,30,30,16,30,20,46,30,30,56,20,10,36,10,30,30,30,0,40,30,10,30,20,36,20,30,26,46,30,30,10,36,50,20,30,20,40,20,20,26,20,56,20,36,26,56,30,56,20,20,26,30,30,30,40,1e+08,30,20,30,20,26,26,20,26,30,20,26,6,10,30,30,40,20,36,30,40,26,13,22,13,22,13,21,20,14,18,19,17,21,9,19,12,12,17,30,26,17,21,14,21,21,9,19,17,20,23,18,13,22,18,27,19,17,19,21,14,18,23,17,21,15,17,20,14,17,19,15,16,23,21,15,20,26,17,14,25,16,14,10,17,26,18,18,18,20,14,20,18,16,27,20,17,16,27,14,21,18,19,26,21,24,21,23,21,10,26,24,30,19,21,11,13,19,17,21,27,16
20,10,20,40,40,30,20,0,26,30,20,20,36,10,20,20,10,20,6,30,30,30,30,20,20,30,20,10,10,20,10,20,20,26,10,40,20,36,30,30,10,26,30,10,20,56,20,40,10,26,30,20,20,56,20,30,30,80,10,20,16,20,26,30,46,40,20,40,16,20,30,20,30,30,10,10,20,30,30,1e+08,16,36,20,20,30,20,20,40,20,20,40,46,36,20,10,40,10,26,20,30,21,19,12,21,20,19,17,13,26,15,12,21,11,13,17,13,20,22,27,18,17,22,15,17,17,15,15,14,16,18,15,24,12,22,19,16,17,28,20,15,20,11,22,15,20,17,22,14,20,19,26,19,17,13,20,20,19,11,21,13,18,18,14,15,14,17,21,18,11,19,20,19,25,21,13,18,18,16,18,17,24,17,21,22,17,22,28,13,21,17,20,16,15,16,14,24,18,12,20,11
20,20,20,10,6,26,20,10,30,10,30,10,16,0,16,16,20,16,20,20,16,10,10,20,16,20,26,20,10,10,6,20,20,20,20,10,16,16,20,20,6,20,10,30,26,10,26,16,10,26,26,20,20,16,36,20,26,16,10,36,26,10,26,20,20,20,20,36,30,26,36,26,20,20,30,20,30,16,20,16,1e+08,20,30,30,16,10,36,10,10,36,16,10,20,16,20,26,30,20,30,30,14,18,15,17,14,16,18,15,16,18,9,13,10,23,9,18,15,23,23,15,6,15,21,10,9,12,14,18,15,19,16,14,20,14,17,17,14,21,9,21,11,23,13,16,18,15,15,13,16,11,15,7,26,17,17,11,13,16,24,18,11,15,9,11,21,21,16,16,14,14,14,13,16,12,17,14,14,17,17,17,17,25,14,14,22,18,21,16,23,12,15,12,21,11,11,17,12,21,15,18
20,10,20,16,20,20,30,20,16,10,40,10,16,10,20,20,10,10,6,20,30,20,20,10,20,30,10,10,30,20,20,6,40,30,20,20,10,26,10,20,20,46,20,10,20,20,30,20,40,16,30,30,20,36,20,10,10,30,30,30,26,20,16,26,26,30,10,40,36,20,20,0,20,10,40,30,20,20,30,36,20,1e+08,10,40,56,20,30,20,30,20,30,26,56,20,30,30,50,26,30,30,19,17,18,21,12,22,17,12,23,19,14,19,18,14,16,13,25,22,12,13,13,19,19,20,15,13,11,18,15,20,14,20,14,20,19,18,15,14,16,12,17,18,19,13,22,15,17,14,15,22,24,19,11,12,15,22,25,12,17,15,15,24,16,10,11,9,20,21,14,19,23,17,16,19,12,20,16,13,19,19,20,19,23,21,16,12,26,11,19,14,24,8,22,16,6,18,22,23,25,14
30,36,20,10,16,20,16,20,26,20,36,30,20,36,20,16,10,40,20,26,20,10,20,40,10,26,16,10,0,26,6,30,0,30,36,30,16,10,16,10,20,20,10,26,36,20,20,20,6,30,20,20,10,20,26,30,10,10,20,36,0,10,40,10,20,36,30,20,10,16,20,26,20,20,30,46,40,40,20,20,30,10,1e+08,10,40,10,20,20,6,10,10,30,0,20,30,20,10,10,30,30,19,17,8,27,19,15,9,19,17,10,17,16,7,18,16,18,13,20,34,13,22,21,28,12,11,15,16,10,19,19,25,17,9,10,11,12,20,31,22,15,21,14,27,22,12,21,13,12,22,11,10,12,26,13,19,16,13,16,19,8,12,16,10,14,19,16,18,13,11,20,12,14,25,19,14,17,21,11,15,16,17,23,15,15,11,21,18,15,24,21,16,21,10,10,18,15,16,12,17,14
36,20,20,16,20,6,20,30,16,10,20,16,20,26,10,10,20,26,20,10,10,20,0,10,20,10,20,0,20,36,20,20,36,30,20,26,10,20,10,10,0,30,40,20,30,46,30,20,30,30,30,30,30,10,30,0,10,10,30,30,10,20,30,0,6,16,10,30,36,20,30,30,10,10,46,20,20,30,26,20,30,40,10,1e+08,26,20,46,10,16,20,26,26,20,20,20,20,10,10,20,50,22,21,8,18,13,22,19,17,21,15,17,18,16,11,9,19,24,23,24,13,10,17,16,19,14,21,14,13,23,14,13,30,17,18,17,14,16,19,11,17,18,15,18,15,22,14,15,17,20,16,15,22,22,13,13,16,26,12,18,16,10,27,22,13,22,19,21,23,14,18,16,17,23,20,16,15,16,7,25,15,17,22,18,31,16,20,16,15,14,22,20,12,16,13,11,27,19,14,20,14
36,30,30,36,30,30,36,30,20,40,30,16,26,20,10,16,10,30,10,10,30,20,20,20,20,20,16,20,20,26,20,20,36,30,30,30,20,36,20,30,10,26,30,20,40,30,20,30,26,26,16,26,30,40,36,30,20,30,20,36,36,20,56,26,20,30,20,40,16,16,26,36,30,20,20,36,30,26,26,30,16,56,40,26,1e+08,30,36,30,10,36,20,20,36,20,26,20,16,26,36,30,18,13,15,26,24,20,20,16,15,20,14,15,19,17,8,22,23,25,25,18,15,15,22,15,12,17,19,24,15,16,24,17,20,17,19,19,14,23,23,21,20,17,23,23,16,21,17,20,18,15,26,9,20,15,18,17,21,15,22,17,18,17,11,13,22,13,17,25,12,16,17,16,22,21,21,20,18,17,15,20,19,23,25,18,19,23,18,15,25,19,24,17,18,15,15,19,16,19,16,14
30,30,20,30,40,30,10,30,10,10,20,16,26,20,10,30,10,20,10,20,30,30,30,30,20,10,20,20,16,0,20,20,30,30,20,20,10,26,30,56,10,10,46,20,10,20,10,30,20,16,10,0,26,10,20,36,10,10,10,20,36,16,30,20,20,10,20,20,40,20,10,30,36,20,20,26,20,20,20,20,10,20,10,20,30,1e+08,0,36,10,10,30,30,20,20,10,10,10,16,20,20,20,10,11,16,16,18,22,20,19,14,21,14,16,8,16,11,17,17,20,22,16,16,19,14,12,16,18,12,25,12,19,16,13,15,18,13,20,27,25,13,12,14,25,23,11,18,15,16,23,23,20,11,12,8,18,21,14,13,15,12,19,19,16,17,16,20,15,21,9,13,22,15,24,26,22,18,17,14,14,21,17,15,14,20,15,22,9,10,19,24,23,18,12,10,19,25,18,10,17,12
20,10,20,6,10,20,20,20,36,20,30,10,10,26,10,20,20,20,6,16,20,20,10,10,20,26,30,20,20,26,30,10,26,20,40,46,20,20,20,30,20,50,20,10,20,6,36,30,20,20,40,20,40,20,70,10,20,30,10,70,20,10,20,10,20,30,16,46,20,10,50,40,0,26,40,10,10,30,26,20,36,30,20,46,36,0,1e+08,10,10,26,20,0,20,26,30,30,10,20,20,40,19,23,12,21,11,25,15,12,16,20,15,17,18,15,7,15,25,21,20,16,10,16,17,20,12,16,13,22,22,17,17,21,19,24,16,12,13,18,13,21,21,16,16,14,19,14,16,17,18,18,18,22,19,16,20,23,22,13,22,15,13,15,17,17,20,13,19,18,18,17,17,13,21,18,15,11,17,10,20,19,24,16,21,27,17,18,22,11,18,13,24,15,19,16,11,21,18,20,24,18
10,10,30,30,40,30,10,10,20,20,10,16,26,30,20,20,0,30,10,40,20,10,20,16,10,20,20,20,20,10,10,30,30,30,10,40,10,26,30,36,10,10,26,10,20,20,6,20,10,16,0,0,20,20,10,40,10,40,10,10,6,20,30,10,30,20,30,30,20,10,30,20,26,40,10,26,30,30,30,40,10,20,20,10,30,36,10,1e+08,10,20,10,20,10,30,20,10,20,36,26,20,15,12,8,18,19,16,14,17,17,14,18,20,10,10,11,12,12,18,25,15,16,18,17,10,14,18,17,17,18,13,17,15,15,17,17,16,21,31,25,13,13,11,25,14,12,19,15,13,19,17,14,14,24,13,16,17,11,13,16,13,22,8,16,23,16,14,18,15,10,16,25,22,26,24,16,17,17,15,13,20,14,18,16,15,15,22,14,13,30,20,25,19,13,12,18,19,20,11,16,13
30,26,20,16,20,0,10,36,10,26,16,6,6,10,10,10,20,6,16,0,20,20,16,6,20,10,10,26,20,20,10,20,20,6,16,10,16,20,20,20,16,10,30,16,16,30,10,10,20,26,36,16,20,10,20,20,10,40,16,10,30,30,6,30,20,10,0,0,20,10,20,10,6,20,16,10,26,20,20,20,10,30,6,16,10,10,10,10,1e+08,20,10,20,20,6,26,20,40,26,16,10,9,17,14,14,20,13,26,12,16,19,10,14,15,17,18,23,15,11,9,9,8,12,14,13,12,10,19,20,12,14,18,15,9,8,17,18,19,6,12,16,14,18,13,13,10,13,12,18,11,12,15,8,15,20,14,16,11,20,17,16,14,15,19,15,16,18,14,11,9,14,10,13,11,13,19,16,12,17,12,19,14,12,13,12,15,15,11,19,11,19,12,6,18,9,15,11,13,14,16,12
20,30,20,16,20,10,10,20,20,30,30,10,26,0,10,36,10,10,0,20,26,30,30,10,36,20,36,10,6,20,20,20,16,30,20,30,40,26,30,30,20,26,20,40,16,10,20,36,26,26,20,30,30,20,26,20,20,20,20,26,26,10,26,20,20,30,10,30,20,20,26,16,10,20,20,20,20,16,26,20,36,20,10,20,36,10,26,20,20,1e+08,20,10,36,10,26,20,20,36,26,10,17,20,13,24,19,18,16,16,16,21,10,18,16,21,9,22,12,25,20,15,9,12,14,14,10,11,15,22,12,13,14,14,22,16,24,17,13,22,18,20,16,11,23,19,17,18,12,19,16,16,19,8,16,18,22,17,12,12,23,15,16,11,17,11,18,16,15,23,11,13,15,14,21,16,11,19,18,23,17,14,19,22,28,17,13,19,23,16,23,12,23,16,23,15,10,17,16,18,18,16
10,10,10,20,20,10,20,10,20,20,30,30,36,10,10,20,20,40,30,10,30,20,20,20,10,20,10,10,10,30,20,0,36,20,10,20,10,16,30,20,30,16,30,10,10,46,10,40,10,26,20,10,20,30,20,10,30,30,20,10,26,30,26,10,20,20,20,30,20,30,10,10,30,10,10,30,10,0,6,40,16,30,10,26,20,30,20,10,10,20,1e+08,50,40,30,10,20,20,36,10,30,25,19,19,16,17,24,11,22,21,17,16,17,16,10,6,11,20,21,24,17,15,19,16,20,16,17,17,12,20,14,24,23,14,19,17,15,18,24,16,13,19,16,20,18,18,17,17,19,21,17,28,25,12,13,15,19,23,22,17,14,17,24,18,13,14,14,28,20,11,16,14,14,24,21,22,14,17,12,18,15,22,17,16,22,16,15,18,11,16,22,23,14,15,16,23,24,18,14,22,13
10,20,20,10,30,20,30,10,6,10,30,20,26,16,20,10,20,30,20,10,20,20,10,20,30,30,10,10,10,30,10,10,36,26,20,30,10,6,20,50,30,16,50,20,30,46,20,10,20,36,16,10,20,36,10,20,20,46,20,10,16,20,46,30,46,20,10,30,46,20,20,10,40,0,10,20,20,16,10,46,10,26,30,26,20,30,0,20,20,10,50,1e+08,26,20,16,16,20,26,20,20,23,13,13,16,18,18,15,25,29,12,22,21,16,12,19,12,18,21,25,14,18,20,18,19,18,15,13,12,17,15,21,21,14,20,21,10,17,25,19,13,20,14,21,15,16,20,17,17,20,21,26,15,13,13,19,18,21,11,17,14,16,27,15,12,14,19,24,21,12,16,22,25,23,22,20,18,22,14,20,13,27,13,18,17,16,15,22,11,17,20,21,15,13,15,19,18,19,15,19,12
10,20,10,6,20,10,30,20,6,40,30,10,16,10,20,20,20,30,6,20,30,10,30,10,20,30,20,10,20,20,20,6,60,20,20,20,20,36,20,30,30,46,10,10,10,20,30,20,20,36,40,20,30,36,20,10,20,30,20,20,26,10,16,36,16,20,10,30,36,30,10,20,10,10,10,20,10,10,30,36,20,56,0,20,36,20,20,10,20,36,40,26,1e+08,30,30,36,40,30,16,26,24,16,16,19,17,25,12,15,21,19,15,18,20,13,12,13,28,16,17,16,12,19,20,20,13,15,16,21,14,19,18,18,14,22,18,14,19,16,18,15,17,18,17,19,22,16,17,14,16,20,30,21,8,13,21,17,23,15,19,16,19,24,13,11,13,15,20,22,17,14,19,22,16,22,17,18,17,13,19,18,25,13,28,19,20,12,28,10,15,11,19,14,24,17,14,22,21,22,26,18
6,26,20,16,20,10,10,16,30,16,26,26,30,40,20,10,0,30,26,10,20,10,40,26,10,10,30,6,0,16,26,10,26,16,20,30,30,30,10,10,30,20,10,26,26,10,30,40,16,20,10,10,10,20,20,10,16,10,16,30,10,0,40,6,10,30,30,26,20,30,20,20,20,16,20,26,20,56,30,20,16,20,20,20,20,20,26,30,6,10,30,20,30,1e+08,26,10,26,30,16,20,16,14,13,29,18,19,15,18,13,18,20,18,8,12,15,21,17,19,26,14,27,14,17,16,11,17,17,19,19,13,16,20,15,23,14,14,13,32,30,15,16,12,24,11,14,16,10,17,25,12,19,18,14,15,18,19,14,15,16,11,21,10,13,24,14,11,15,21,8,16,15,19,27,19,13,13,22,11,17,12,18,20,17,27,18,18,17,16,21,18,23,24,17,17,15,17,16,12,14,18
40,36,20,36,20,20,30,30,10,20,40,10,26,10,10,16,20,26,16,20,20,20,20,20,16,16,26,20,20,26,10,20,26,20,40,26,30,10,40,26,10,30,26,26,20,10,30,20,20,16,30,20,36,26,30,40,20,16,26,20,20,10,26,30,46,26,10,20,20,20,40,10,10,40,30,50,26,20,40,10,20,30,30,20,26,10,30,20,26,26,10,16,30,26,1e+08,36,26,20,36,20,15,17,15,27,19,15,18,18,14,21,12,20,14,19,15,19,15,29,21,13,10,16,24,18,10,12,21,22,14,22,17,13,16,14,17,13,20,19,13,18,20,19,17,16,16,18,11,20,11,10,13,8,19,16,20,18,12,20,28,19,10,20,14,21,16,19,21,22,14,19,20,19,14,11,17,15,23,19,15,20,19,29,22,15,17,20,20,20,25,12,22,10,19,14,24,15,20,21,16,14
20,16,10,26,10,10,20,10,16,30,50,30,20,10,10,26,10,16,30,10,20,10,30,30,10,30,20,20,10,40,10,10,20,10,10,10,20,10,20,20,26,30,20,16,20,26,30,30,40,20,30,30,16,20,10,40,20,46,20,10,10,10,10,26,40,20,10,20,30,20,20,10,20,30,20,30,20,20,20,40,26,30,20,20,20,10,30,10,20,20,20,16,36,10,36,1e+08,20,10,30,36,14,25,16,17,12,18,20,14,25,17,16,19,7,17,17,12,16,27,21,18,11,24,17,20,14,16,13,15,19,21,18,19,13,21,17,16,14,16,12,17,24,13,17,14,22,16,19,12,13,13,19,20,20,17,18,18,21,9,27,14,15,24,15,12,12,12,24,19,11,19,17,17,18,21,10,14,19,13,15,16,20,25,21,22,18,15,23,8,16,14,14,8,18,14,15,21,15,22,23,15
10,10,20,6,10,10,30,10,16,10,26,16,16,10,26,26,26,16,16,36,10,10,20,10,20,26,20,26,16,30,30,0,16,10,6,16,10,16,10,20,10,30,10,20,10,10,26,20,36,16,26,36,10,10,26,10,16,30,30,26,20,20,6,20,30,26,16,26,30,26,26,0,20,26,26,10,26,10,36,10,30,50,10,10,16,10,10,20,40,20,20,20,40,26,26,20,1e+08,30,20,10,10,14,22,16,15,12,20,16,15,20,13,19,14,19,16,13,17,16,10,11,12,9,15,16,14,14,12,16,10,15,7,13,9,16,17,22,12,6,15,19,12,25,15,9,19,22,11,18,10,15,16,13,9,15,14,17,18,13,21,14,19,8,15,15,11,12,14,14,13,15,13,11,16,10,12,25,21,21,12,12,13,9,22,14,18,14,16,11,12,10,19,13,23,10,5,11,13,23,17,19
20,10,30,20,26,20,16,30,20,30,26,36,26,10,20,10,20,30,20,6,16,30,36,40,26,26,20,30,10,20,20,36,26,36,20,36,20,26,26,26,20,20,26,10,20,30,20,20,10,16,10,10,26,16,10,26,46,36,20,10,26,26,26,36,16,10,40,26,26,40,30,20,16,20,10,30,16,20,30,26,20,26,10,10,26,16,20,36,26,36,36,26,30,30,20,10,30,1e+08,26,20,16,13,20,22,18,21,16,22,17,24,11,19,19,23,10,18,18,23,26,15,11,17,15,16,11,14,18,26,16,15,14,16,15,16,18,20,15,22,14,21,19,18,19,17,15,21,13,24,14,15,17,10,28,21,24,17,13,21,20,21,15,11,13,19,19,16,18,18,15,19,19,16,24,14,12,19,19,25,13,17,18,22,23,20,24,24,19,16,29,16,23,11,22,15,21,18,18,19,16,17
10,26,40,30,36,26,20,16,20,20,50,30,46,10,10,6,10,30,20,6,40,10,10,30,16,10,20,10,10,30,20,20,20,36,40,20,10,16,26,20,20,30,10,40,40,40,40,10,30,16,20,20,20,40,30,30,20,36,20,20,26,20,36,26,30,10,20,30,30,20,50,10,26,20,20,50,36,20,40,20,30,30,30,20,36,20,20,26,16,26,10,20,16,16,36,30,20,26,1e+08,10,10,12,14,23,14,14,18,21,19,15,12,17,13,17,12,15,15,27,27,14,15,17,22,18,10,10,16,25,18,17,17,12,16,12,14,14,18,26,15,19,23,18,19,16,16,16,12,14,14,19,17,9,23,10,18,19,15,17,21,18,16,17,10,14,20,18,23,20,12,17,17,18,21,16,12,16,24,16,15,16,15,24,17,16,16,19,16,16,24,15,24,7,21,12,20,14,18,17,19,12
26,30,10,20,20,10,10,16,20,10,40,16,20,20,0,10,10,30,20,0,10,30,20,40,26,20,6,20,10,40,20,20,20,20,60,20,20,10,20,30,26,30,40,20,20,26,20,20,10,20,30,20,36,10,20,20,20,36,20,20,10,20,30,16,20,0,20,20,30,20,20,20,20,10,20,30,30,30,26,30,30,30,30,50,30,20,40,20,10,10,30,20,26,20,20,36,10,20,10,1e+08,21,18,13,19,6,25,10,19,18,10,18,12,17,12,9,19,28,20,19,19,8,22,16,24,12,16,17,17,26,18,19,29,16,20,8,9,17,19,12,14,23,13,19,18,21,12,19,15,17,13,15,21,24,11,16,19,19,13,15,11,10,26,17,12,20,13,22,15,16,17,15,20,19,14,18,8,16,9,15,25,24,23,17,25,12,19,25,11,21,21,14,7,10,16,18,23,16,9,23,15
15,20,12,8,18,12,9,16,19,15,17,11,16,20,11,14,15,21,12,14,10,12,15,14,15,25,11,8,8,18,14,11,21,17,19,17,17,16,17,18,14,27,14,12,14,20,16,13,10,22,21,11,19,20,20,12,10,21,11,18,17,12,20,17,24,13,13,24,25,16,15,20,12,17,14,15,15,14,13,21,14,19,19,22,18,20,19,15,9,17,25,23,24,16,15,14,10,16,10,21,1e+08,35,26,33,27,42,26,35,44,26,41,29,29,23,24,32,40,32,35,43,32,43,34,37,29,36,31,29,36,38,39,45,28,41,26,27,37,34,30,30,44,28,42,38,38,42,41,28,39,40,42,29,29,30,30,45,48,26,32,25,26,47,29,33,33,34,40,34,35,40,41,37,42,37,40,32,41,36,43,35,49,24,35,40,25,34,41,26,28,40,33,30,26,33,29,46,36,30,42,38
13,11,11,16,12,15,16,13,15,13,20,16,21,17,11,16,10,15,11,17,13,15,16,15,16,16,19,13,6,21,18,12,19,15,15,15,16,15,17,13,17,17,17,11,17,17,17,21,20,19,25,19,18,16,22,13,20,20,12,25,19,10,16,14,14,17,15,18,17,20,20,19,11,20,17,17,14,22,22,19,18,17,17,21,13,10,23,12,17,20,19,13,16,14,17,25,14,13,12,18,35,1e+08,28,33,24,43,30,37,33,31,38,37,27,29,20,35,36,31,36,35,27,36,38,35,25,37,30,32,28,35,36,34,31,35,30,36,29,31,25,32,37,29,34,32,33,42,35,30,38,30,31,33,36,35,31,37,40,24,31,35,31,36,30,26,28,30,33,35,32,40,36,35,32,28,35,30,34,31,40,37,34,34,33,34,28,36,35,31,31,38,32,32,33,35,29,33,34,30,39,39
15,17,13,17,13,14,19,18,7,19,13,16,12,9,16,18,13,15,18,16,15,17,10,15,19,13,16,27,13,15,16,12,15,12,10,9,12,16,14,10,16,16,16,14,14,12,16,17,17,10,14,16,13,13,15,13,19,14,21,15,18,20,13,15,12,14,8,14,13,16,15,12,14,19,18,16,13,14,13,12,15,18,8,8,15,11,12,8,14,13,19,13,16,13,15,16,22,20,14,13,26,28,1e+08,31,35,29,45,28,29,44,25,35,25,43,33,40,28,33,26,27,16,27,31,26,23,28,40,40,29,23,29,28,38,27,34,37,31,31,17,36,24,36,28,27,30,31,27,44,30,25,31,15,36,40,32,31,30,40,34,36,23,26,25,36,36,36,30,28,24,25,29,24,21,29,26,37,27,43,27,28,28,39,32,28,36,29,41,44,27,26,29,19,40,27,37,30,30,42,29,37
17,18,13,23,23,21,24,15,25,14,25,14,24,25,13,25,3,17,8,23,19,14,16,21,16,26,21,10,4,23,27,15,17,24,31,21,26,23,21,16,25,22,21,23,25,12,20,26,28,21,16,17,21,20,28,20,20,20,14,27,16,8,25,13,16,25,17,19,18,29,25,30,16,26,17,29,20,27,22,21,17,21,27,18,26,16,21,18,14,24,16,16,19,29,27,17,16,22,23,19,33,33,31,1e+08,32,37,38,44,41,35,33,38,18,31,28,36,29,39,42,33,34,37,41,34,22,33,35,39,30,35,44,33,34,35,32,32,39,48,33,37,34,30,51,40,31,37,31,33,43,29,36,29,39,36,36,35,31,32,40,35,32,30,28,36,33,23,27,38,21,41,29,31,40,38,38,38,43,33,33,35,43,42,40,33,36,34,39,32,47,36,49,33,38,29,33,33,40,34,36,34
8,8,23,15,17,16,19,12,5,19,11,6,14,12,20,19,13,14,4,22,21,20,23,17,14,13,21,19,11,12,17,11,16,18,6,18,8,15,27,18,9,13,16,8,13,15,12,22,12,14,13,15,18,19,14,23,12,14,17,11,18,18,22,13,20,21,5,19,13,12,13,10,18,20,13,18,15,19,13,20,14,12,19,13,24,16,11,19,20,19,17,18,17,18,19,12,15,18,14,6,27,24,35,32,1e+08,29,44,29,35,34,25,32,18,34,31,33,29,30,32,31,21,27,22,23,24,25,32,29,25,24,30,28,33,28,34,39,22,35,28,34,27,25,37,27,28,34,25,35,29,31,34,21,25,34,30,28,26,34,32,34,24,27,20,44,34,31,28,22,29,31,33,28,37,34,28,36,34,42,27,27,33,28,33,31,37,28,31,35,33,21,30,31,35,24,26,34,31,40,26,34
17,18,12,14,15,22,9,15,20,15,25,15,17,23,12,11,11,25,12,12,15,15,14,15,17,20,11,9,11,26,15,15,26,21,20,29,15,17,16,16,17,19,17,12,16,18,21,17,14,22,18,17,19,16,16,18,23,24,18,17,21,10,20,17,24,18,20,26,24,16,16,18,12,21,16,15,18,14,21,19,16,22,15,22,20,18,25,16,13,18,24,18,25,19,15,18,12,21,14,25,42,43,29,37,29,1e+08,36,43,45,33,39,37,28,27,29,37,47,35,40,42,30,41,37,46,27,37,37,36,46,45,43,49,32,35,28,39,39,41,33,38,45,31,42,43,39,43,39,34,44,37,42,34,37,35,36,45,47,32,35,32,30,45,37,34,35,34,44,36,32,48,40,39,46,40,42,30,43,39,42,46,44,41,35,47,32,36,38,33,34,42,41,28,33,37,31,42,41,29,48,37
23,16,12,19,20,19,23,20,12,18,15,14,21,14,14,19,11,15,7,16,15,20,14,15,20,13,13,16,16,12,18,19,14,16,10,15,11,23,20,20,9,12,25,18,19,14,15,22,20,18,13,14,19,12,18,18,17,17,21,19,23,24,21,11,14,14,15,9,18,18,21,18,16,17,14,20,20,16,20,17,18,17,9,19,20,22,15,14,26,16,11,15,12,15,18,20,20,16,18,10,26,30,45,38,44,36,1e+08,29,36,31,24,32,25,39,32,36,29,42,34,29,21,26,29,28,21,27,42,33,27,25,31,33,33,28,31,42,30,36,20,39,25,43,34,31,29,32,30,51,33,27,28,19,37,47,30,31,31,38,41,39,19,25,26,33,38,36,32,37,25,30,33,28,32,34,29,33,29,40,33,29,33,42,34,33,35,28,39,41,31,27,35,23,36,24,35,32,30,40,31,36
14,18,13,16,17,14,18,16,13,15,21,18,22,17,12,18,10,20,19,19,16,10,14,16,16,18,16,15,8,24,17,9,19,25,26,20,19,14,24,18,21,12,20,18,19,19,20,18,21,22,18,18,17,22,24,15,20,15,17,21,19,16,25,16,14,18,14,13,23,29,23,22,23,16,21,21,18,15,14,13,15,12,19,17,16,20,12,17,12,16,22,25,15,18,18,14,16,22,21,19,35,37,28,44,29,43,29,1e+08,40,33,37,40,23,26,23,32,33,38,39,37,28,34,39,39,26,32,38,33,31,38,46,39,34,36,33,36,35,40,31,31,43,28,46,38,31,41,34,32,42,33,37,29,33,30,38,40,37,36,32,32,29,38,29,35,33,32,32,35,29,42,32,38,42,34,39,35,43,36,37,33,33,34,34,32,37,35,32,27,39,42,37,28,32,35,30,36,36,32,35,36
13,16,12,12,17,16,14,9,20,14,20,13,16,19,12,19,11,16,11,20,14,14,13,13,16,23,14,11,11,22,11,13,19,19,14,22,13,18,16,20,19,23,26,9,13,22,20,20,16,21,19,13,21,19,17,19,12,23,13,19,14,14,24,20,26,21,11,23,25,19,17,17,16,19,13,19,19,21,18,26,16,23,17,21,15,19,16,17,16,16,21,29,21,13,14,25,15,17,19,18,44,33,29,41,35,45,36,40,1e+08,29,45,35,26,25,24,30,43,39,41,42,32,51,36,44,30,37,36,29,41,41,42,40,28,41,35,38,38,42,37,32,42,26,43,40,40,41,41,33,42,44,44,36,31,37,35,48,43,30,38,33,28,45,31,35,31,31,42,33,30,51,47,44,45,41,43,36,46,33,43,37,49,32,33,37,35,36,36,27,30,41,39,32,26,33,28,48,40,33,52,33
14,21,17,22,19,22,19,26,6,20,19,18,19,13,17,25,6,12,11,13,21,16,12,19,22,6,23,18,4,14,19,11,17,13,14,17,17,22,17,10,14,20,12,22,25,18,18,25,20,19,23,22,13,18,23,13,23,14,19,19,26,19,19,11,11,22,15,13,15,23,23,23,16,14,19,15,13,20,19,15,18,19,10,15,20,14,20,14,19,21,17,12,19,18,21,17,20,24,15,10,26,31,44,35,34,33,31,33,29,1e+08,22,38,18,38,32,41,24,31,30,34,15,25,33,26,22,29,46,45,30,31,30,30,48,24,34,37,32,35,20,46,26,27,32,32,28,30,27,40,28,27,33,20,42,44,33,32,27,42,36,50,25,23,23,29,41,28,34,35,25,36,29,34,27,31,30,38,29,40,30,29,32,43,40,33,43,37,38,44,33,28,28,18,46,29,35,31,30,44,33,38
14,15,14,16,20,11,14,14,17,8,11,12,13,20,15,17,8,22,12,16,12,15,15,17,14,19,16,7,5,21,16,13,15,13,18,16,17,14,14,14,27,10,21,12,13,15,19,19,19,15,14,18,18,10,17,15,14,16,12,17,15,13,20,20,12,16,14,18,19,24,17,19,13,16,16,16,12,20,17,12,9,14,17,17,14,21,15,18,10,10,16,22,15,20,12,16,13,11,12,18,41,38,25,33,25,39,24,37,45,22,1e+08,34,23,17,21,28,35,31,35,41,36,45,37,37,25,35,33,28,37,37,37,40,26,37,32,31,36,36,32,29,39,28,38,39,34,34,37,28,43,39,41,34,28,29,33,42,39,21,31,27,30,41,32,33,25,29,36,33,35,43,37,36,41,45,39,34,39,28,36,38,43,28,30,34,24,28,30,24,33,37,36,30,26,33,24,45,39,24,38,31
13,16,15,19,23,18,19,17,15,18,20,17,22,19,18,17,8,22,13,20,17,12,11,16,20,18,17,11,8,19,23,13,22,19,15,18,19,23,16,18,19,19,21,13,21,15,17,20,22,16,21,17,21,15,21,17,21,21,17,20,15,11,20,14,15,22,15,18,18,21,23,21,15,20,15,20,16,20,21,21,13,19,16,18,15,14,17,20,14,18,17,21,18,18,20,19,19,19,17,12,29,37,35,38,32,37,32,40,35,38,34,1e+08,25,32,25,35,32,38,41,35,26,30,38,33,28,39,38,44,32,35,39,34,32,34,39,40,36,37,27,36,35,31,39,34,31,33,31,38,40,35,36,24,35,36,47,35,32,32,32,37,25,32,30,30,31,30,31,41,31,41,37,36,33,40,36,38,34,39,33,31,32,37,39,31,37,39,36,32,36,36,34,26,37,34,32,30,35,34,32,36
11,12,12,9,11,13,14,15,13,13,12,12,11,7,10,14,21,14,13,10,11,19,20,6,11,16,14,14,17,16,14,11,20,20,18,18,17,16,19,22,11,16,18,18,7,17,16,6,6,16,12,15,21,12,14,9,9,12,13,15,18,14,17,13,12,8,6,14,19,13,6,14,11,12,15,16,13,10,9,11,10,18,7,16,19,16,18,10,15,16,16,16,20,8,14,7,14,19,13,17,29,27,25,18,18,28,25,23,26,18,23,25,1e+08,28,20,28,29,25,26,26,24,26,26,30,23,27,27,22,24,30,25,29,21,22,24,24,28,20,23,22,29,31,24,27,27,27,28,30,25,26,23,22,17,21,23,25,28,28,27,20,18,33,29,20,27,25,29,24,26,24,26,25,26,22,30,21,25,31,25,28,25,16,26,28,22,28,21,25,22,28,20,19,22,25,26,27,23,20,29,27
24,18,20,22,9,17,13,18,12,21,14,16,8,8,14,10,16,11,17,7,14,13,11,17,21,9,17,31,17,13,13,15,17,17,13,18,13,17,15,11,13,19,12,15,14,14,18,11,15,13,13,13,13,18,14,13,19,14,17,15,18,20,14,12,14,14,11,13,15,14,16,18,11,17,19,14,12,14,19,13,23,14,18,11,17,8,15,10,17,21,10,12,13,12,19,17,19,23,17,12,23,29,43,31,34,27,39,26,25,38,17,32,28,1e+08,40,38,25,30,22,26,17,22,27,25,20,25,40,36,29,25,23,33,42,23,27,34,27,27,16,41,29,38,23,27,22,28,28,41,21,24,24,16,37,36,27,24,24,39,36,33,24,32,27,29,40,35,30,26,24,27,26,27,26,28,27,30,25,42,27,29,26,30,27,24,37,29,30,41,28,29,25,19,37,25,38,26,26,34,25,36
21,24,11,29,19,20,12,26,6,18,10,11,8,8,12,6,12,11,15,11,10,15,16,17,19,10,16,20,16,10,6,16,10,13,9,12,19,19,13,13,13,9,16,14,13,20,14,4,18,13,12,12,12,14,7,19,8,16,19,8,16,12,10,20,21,18,12,9,9,8,8,8,16,13,17,12,13,14,12,17,9,16,16,9,8,16,7,11,18,9,6,19,12,15,15,17,16,10,12,9,24,20,33,28,31,29,32,23,24,32,21,25,20,40,1e+08,29,21,25,23,23,14,21,27,24,22,18,35,27,27,27,26,28,30,19,26,32,30,25,15,31,25,28,22,25,23,25,21,31,28,19,22,14,30,39,24,23,26,37,28,29,18,23,22,31,30,38,23,30,20,25,26,20,24,25,22,23,23,36,21,27,24,34,22,22,36,29,29,36,26,25,22,16,33,25,35,22,24,38,21,27
25,22,20,14,19,23,17,13,9,23,22,18,27,13,15,15,10,11,14,9,17,15,12,20,24,13,14,22,8,11,15,13,15,12,14,13,16,17,14,11,12,15,12,21,23,15,13,18,16,20,11,11,11,15,14,12,22,12,25,12,16,18,17,10,15,13,12,14,11,12,11,15,14,18,17,17,13,16,12,13,18,13,18,19,22,11,15,12,23,22,11,12,13,21,19,12,13,18,15,19,32,35,40,36,33,37,36,32,30,41,28,35,28,38,29,1e+08,33,39,32,33,17,36,32,35,21,33,45,46,30,34,34,34,45,27,34,41,30,33,23,38,37,36,35,33,30,34,29,39,33,26,30,20,37,47,30,33,29,36,29,43,25,36,29,31,46,35,34,36,29,37,30,32,33,31,31,31,31,46,33,34,28,39,37,34,35,41,37,42,34,37,34,22,46,33,36,30,28,38,39,43
12,13,9,8,16,11,15,16,20,10,22,13,14,19,12,11,22,21,13,18,11,15,13,15,15,29,8,16,16,16,17,14,28,13,28,20,17,20,10,24,14,26,12,13,13,21,16,15,15,19,27,15,24,17,27,11,18,20,13,26,14,12,15,17,18,15,15,19,21,16,13,21,12,19,23,17,15,20,17,20,15,25,13,24,23,17,25,12,15,12,20,18,28,17,15,16,17,18,15,28,40,36,28,29,29,47,29,33,43,24,35,32,29,25,21,33,1e+08,32,32,33,27,39,33,49,23,37,38,31,39,44,43,42,26,35,28,31,34,31,28,33,42,30,41,38,39,42,38,29,33,44,40,38,30,31,31,45,41,30,36,27,27,44,33,32,36,33,40,29,31,43,36,34,37,39,48,32,38,31,47,46,42,26,32,46,29,34,42,27,33,42,31,26,30,34,32,38,38,23,44,32
22,20,14,21,19,22,28,15,14,21,29,26,30,12,14,23,7,20,19,13,19,17,16,27,16,19,12,17,11,23,20,22,19,26,21,24,24,26,24,18,20,23,24,19,25,25,26,32,26,23,21,21,23,24,20,26,28,24,16,22,14,10,26,20,25,15,25,17,20,26,26,21,24,25,21,24,24,25,30,22,23,22,20,23,25,17,21,18,11,25,21,21,16,19,29,27,16,23,27,20,32,31,33,39,30,35,42,38,39,31,31,38,25,30,25,39,32,1e+08,48,30,21,32,38,34,20,32,40,41,33,35,39,36,36,33,35,29,34,45,26,45,35,30,45,38,31,36,29,34,40,32,28,23,43,40,37,39,29,33,53,37,21,35,26,32,43,31,34,42,28,34,34,34,39,37,40,33,41,39,31,34,40,48,38,35,36,38,39,31,44,35,37,24,38,25,38,39,33,38,35,34
21,23,13,21,21,17,25,16,17,19,22,20,31,18,16,20,9,35,16,22,17,13,22,24,15,21,20,12,7,24,24,19,22,28,21,27,25,23,24,18,25,18,26,20,26,21,21,32,23,31,22,18,24,22,23,25,26,23,21,25,15,8,28,21,23,25,20,27,24,26,24,21,26,26,19,29,28,33,26,27,23,12,34,24,25,20,20,25,9,20,24,25,17,26,21,21,10,26,27,19,35,36,26,42,32,40,34,39,41,30,35,41,26,22,23,32,32,48,1e+08,39,32,42,46,28,21,30,29,36,28,35,41,34,32,34,33,32,35,54,37,31,37,31,52,38,27,35,27,26,48,29,31,29,34,30,38,36,34,27,39,29,26,29,20,34,34,29,35,38,27,37,30,33,47,35,39,38,45,35,38,31,41,47,36,39,28,37,34,25,50,41,42,35,26,26,33,41,36,27,40,30
14,15,14,11,11,13,12,12,16,12,14,13,17,10,7,14,5,15,11,12,14,13,17,14,16,19,12,9,8,19,13,21,16,18,13,17,17,13,17,17,20,17,23,12,12,16,15,18,16,19,17,10,21,17,12,24,15,15,13,14,16,14,17,18,17,15,14,20,17,15,12,14,18,19,10,20,14,19,17,18,15,13,13,13,18,22,16,15,9,15,17,14,16,14,13,18,11,15,14,19,43,35,27,33,31,42,29,37,42,34,41,35,26,26,23,33,33,30,39,1e+08,26,40,32,33,28,37,30,28,38,39,36,37,31,37,26,33,32,38,32,31,40,32,38,39,39,37,35,25,43,43,39,29,34,33,35,41,39,26,34,36,29,34,34,31,32,33,35,33,34,42,40,40,39,37,38,33,40,32,37,44,41,35,29,33,26,32,33,26,33,36,33,27,28,35,29,41,38,32,43,37
6,7,22,13,16,9,16,12,23,12,20,10,14,27,28,23,5,17,10,30,15,10,23,12,6,24,15,5,7,20,14,6,15,15,24,16,23,10,18,12,26,13,10,7,9,15,17,17,23,12,14,22,10,15,23,16,21,12,13,21,8,8,18,10,17,20,20,16,12,23,23,20,14,24,18,14,9,23,21,17,6,13,22,10,15,16,10,16,8,9,15,18,12,27,10,11,12,11,15,8,32,27,16,34,21,30,21,28,32,15,36,26,24,17,14,17,27,21,32,26,1e+08,35,31,33,22,29,18,23,23,29,31,29,17,28,28,25,30,29,48,20,28,17,35,33,29,30,28,16,35,29,24,39,17,19,25,31,30,18,18,22,41,24,24,29,19,17,28,24,22,33,30,28,32,29,32,27,34,24,31,27,30,20,22,32,18,22,23,17,22,27,30,45,17,26,19,28,31,21,32,27
15,16,17,15,13,14,14,11,19,14,20,17,19,18,12,14,10,26,13,13,10,12,21,18,11,22,11,13,8,24,16,13,17,18,18,19,21,13,12,16,26,21,15,14,14,24,16,16,14,17,16,14,21,22,17,17,17,24,13,19,9,13,19,24,22,13,15,16,13,14,14,16,16,23,21,20,13,19,14,22,15,19,21,17,15,16,16,18,12,12,19,20,19,14,16,24,9,17,17,22,43,36,27,37,27,41,26,34,51,25,45,30,26,22,21,36,39,32,42,40,35,1e+08,37,37,24,34,31,32,38,41,41,40,28,39,29,33,34,34,33,33,47,29,40,40,39,40,43,31,40,41,39,29,35,32,31,39,38,25,31,26,30,48,36,37,30,26,49,30,28,48,43,42,47,39,37,33,40,36,37,41,48,33,36,41,30,37,36,23,30,33,35,29,30,34,26,45,39,25,45,31
23,22,15,21,23,18,21,19,19,15,22,17,20,19,14,16,10,15,17,18,14,8,18,19,16,23,9,15,17,23,14,16,20,17,28,17,21,19,15,12,17,22,17,21,16,14,21,17,22,24,27,19,15,19,20,20,19,16,15,22,19,12,20,24,21,20,17,19,22,25,22,22,20,24,23,24,18,20,21,15,21,19,28,16,22,19,17,17,14,14,16,18,20,17,24,17,15,15,22,16,34,38,31,41,22,37,29,39,36,33,37,38,26,27,27,32,33,38,46,32,31,37,1e+08,38,24,37,36,34,34,38,43,36,31,29,35,33,44,39,31,33,38,31,40,39,37,38,31,39,41,28,34,27,38,37,33,38,32,35,38,33,26,35,29,28,37,33,36,45,29,37,34,35,37,38,38,35,44,34,33,40,37,46,36,33,34,41,37,32,38,42,39,26,30,29,33,34,36,33,38,36
15,15,12,13,16,11,13,15,19,13,22,13,17,18,11,11,13,15,13,18,10,12,10,15,12,20,9,14,12,23,13,13,24,18,24,20,13,10,15,16,13,21,18,11,12,20,25,10,16,16,17,16,18,22,19,12,16,19,11,18,13,11,18,20,22,14,17,15,23,22,18,21,13,19,21,18,16,14,21,17,10,20,12,19,15,14,20,10,13,14,20,19,20,16,18,20,16,16,18,24,37,35,26,34,23,46,28,39,44,26,37,33,30,25,24,35,49,34,28,33,33,37,38,1e+08,27,38,32,33,38,43,38,43,27,38,30,27,35,33,31,32,48,27,38,38,40,40,39,26,45,35,40,34,31,27,35,41,45,27,31,27,27,40,34,34,33,29,42,37,33,42,39,38,38,32,34,33,41,32,42,37,42,30,32,41,30,37,31,26,32,40,38,25,30,35,30,37,38,26,40,36
8,9,11,12,9,11,11,8,12,12,13,8,11,12,10,12,14,14,11,13,11,14,12,10,11,16,12,9,7,13,10,8,13,12,9,13,11,10,10,12,11,16,13,9,10,19,13,9,10,13,14,10,10,19,8,10,11,15,14,9,10,5,13,10,16,12,8,15,12,9,8,7,11,12,10,10,9,9,9,17,9,15,11,14,12,12,12,14,12,10,16,18,13,11,10,14,14,11,10,12,29,25,23,22,24,27,21,26,30,22,25,28,23,20,22,21,23,20,21,28,22,24,24,27,1e+08,28,19,18,24,24,21,29,26,29,24,24,25,27,24,23,27,20,24,27,25,24,30,19,29,27,31,25,21,26,29,26,27,20,17,25,22,24,24,23,21,21,24,25,27,29,34,26,24,25,20,24,24,22,27,26,25,18,24,23,23,23,21,18,22,24,23,23,21,25,23,30,24,26,27,23
13,13,12,11,19,12,12,11,17,12,18,13,17,20,11,12,12,18,9,20,10,13,10,17,14,17,13,12,13,11,16,20,16,16,18,14,13,14,13,16,11,13,14,12,16,15,16,19,17,17,19,19,15,11,17,15,21,13,12,20,13,9,16,11,16,18,21,19,14,16,19,19,15,16,22,12,11,13,19,15,12,13,15,21,17,16,16,18,10,11,17,15,15,17,12,16,14,14,10,16,36,37,28,33,25,37,27,32,37,29,35,39,27,25,18,33,37,32,30,37,29,34,37,38,28,1e+08,28,29,29,36,35,41,32,33,33,34,37,32,27,32,36,30,37,32,39,41,39,31,37,34,35,29,33,32,37,37,39,25,29,32,29,33,35,28,28,26,34,29,31,41,35,40,38,29,38,35,32,29,41,37,36,29,33,40,30,32,33,29,32,42,38,26,29,33,28,32,37,28,37,37
22,17,12,18,22,17,20,23,14,22,14,22,20,20,13,12,20,16,15,11,19,19,12,22,16,12,10,16,19,8,17,19,20,18,22,18,16,27,21,19,14,14,14,19,20,18,8,17,15,22,18,10,19,12,17,11,12,12,23,14,16,16,18,15,11,10,16,10,16,19,13,18,18,17,16,19,22,16,17,15,14,11,16,14,19,18,13,17,19,15,17,13,16,17,21,13,12,18,16,17,31,30,40,35,32,37,42,38,36,46,33,38,27,40,35,45,38,40,29,30,18,31,36,32,19,28,1e+08,44,33,31,38,33,43,28,31,36,37,36,20,38,32,33,38,34,31,30,31,45,31,31,30,19,43,42,32,32,31,44,40,38,21,34,28,30,51,38,28,31,31,39,30,32,28,35,42,30,31,43,28,36,34,44,38,31,40,40,33,49,38,33,28,19,40,28,40,34,30,38,33,38
19,23,20,27,28,22,24,27,13,21,25,16,26,12,18,19,7,20,12,15,23,14,8,22,23,10,21,20,10,15,21,17,19,22,22,17,13,21,15,12,14,16,15,26,29,16,16,25,24,18,19,20,17,14,20,14,22,14,19,18,25,11,22,15,12,23,17,16,19,26,28,24,15,13,24,19,20,19,20,14,18,18,10,13,24,12,22,17,20,22,12,12,21,19,22,15,16,26,25,17,29,32,40,39,29,36,33,33,29,45,28,44,22,36,27,46,31,41,36,28,23,32,34,33,18,29,44,1e+08,28,30,37,29,44,32,35,37,31,40,23,37,33,31,42,33,33,30,31,41,33,25,29,17,36,41,37,34,29,34,33,44,23,28,26,29,38,29,27,45,26,33,32,32,31,30,30,34,36,42,35,30,33,42,40,35,41,44,41,37,43,30,36,18,37,24,36,34,33,39,32,41
16,17,12,15,16,17,13,13,18,15,25,16,16,16,13,5,12,24,15,12,11,12,11,21,16,20,12,16,13,21,17,26,22,17,19,21,12,17,13,19,23,17,28,13,19,17,21,13,12,16,14,12,29,16,14,31,13,22,15,16,11,18,17,21,23,16,21,19,25,18,17,16,24,24,22,16,14,13,23,16,15,15,19,23,15,25,22,18,12,12,20,17,14,19,14,19,10,16,18,26,36,28,29,30,25,46,27,31,41,30,37,32,24,29,27,30,39,33,28,38,23,38,34,38,24,29,33,28,1e+08,34,36,41,32,35,21,32,32,35,23,31,32,34,31,35,36,33,34,32,35,42,40,32,37,31,29,36,34,33,31,31,21,41,34,33,38,33,40,33,28,39,42,33,34,53,36,23,30,30,33,38,41,34,30,33,34,27,49,28,31,34,29,19,32,32,35,41,38,27,38,33
16,17,12,14,15,15,10,11,17,14,21,12,13,15,12,11,10,16,15,17,12,9,19,18,11,18,8,18,18,18,18,11,19,17,19,15,24,15,12,10,19,20,11,19,12,19,19,9,11,15,25,20,10,18,19,14,20,15,14,18,14,7,12,18,25,15,18,18,16,14,14,17,17,16,24,17,11,15,18,18,19,20,19,14,16,12,17,13,14,13,14,15,19,13,22,21,15,15,17,18,38,35,23,35,24,45,25,38,41,31,37,35,30,25,27,34,44,35,35,39,29,41,38,43,24,36,31,30,34,1e+08,43,40,32,31,29,34,38,32,30,34,44,29,41,40,40,42,38,25,37,40,43,33,36,32,33,48,42,32,33,31,27,40,42,28,33,28,37,35,32,44,41,37,39,39,39,36,39,36,41,41,39,35,30,42,28,31,35,30,35,36,32,24,33,42,31,36,43,29,44,39
22,16,12,16,19,19,18,19,12,15,23,16,23,20,16,15,12,20,12,13,12,13,20,19,13,22,17,17,15,22,21,13,17,19,29,17,26,18,15,18,24,19,17,17,15,18,18,18,18,24,26,16,16,18,25,16,21,18,16,25,23,10,22,19,18,17,11,20,9,24,18,27,21,18,22,20,14,17,13,15,16,14,25,13,24,19,17,17,18,14,24,21,18,16,17,18,7,14,17,19,39,36,29,44,30,43,31,46,42,30,37,39,25,23,26,34,43,39,41,36,31,41,43,38,21,35,38,37,36,43,1e+08,35,34,28,31,33,44,46,33,37,38,30,47,47,38,44,35,37,40,32,34,30,34,32,34,37,35,35,37,30,26,40,34,34,34,33,35,40,31,40,32,35,41,38,51,34,44,36,36,40,41,38,36,38,33,39,41,28,42,43,38,29,31,30,35,37,36,33,40,32
19,16,12,14,19,15,13,17,19,11,19,13,13,21,9,9,12,21,11,16,11,15,15,14,21,19,10,11,13,20,11,16,18,22,15,24,12,13,18,15,16,17,16,14,22,19,24,18,14,16,19,20,16,20,15,16,16,18,15,17,17,9,23,17,24,24,22,28,23,17,17,21,14,21,22,16,17,16,22,24,14,20,17,30,17,16,21,15,15,14,23,21,18,20,13,19,13,16,12,29,45,34,28,33,28,49,33,39,40,30,40,34,29,33,28,34,42,36,34,37,29,40,36,43,29,41,33,29,41,40,35,1e+08,31,39,30,32,41,37,26,39,47,31,38,38,47,36,35,34,41,43,40,32,39,33,35,44,45,31,33,28,24,45,38,28,36,29,46,35,30,49,36,39,45,38,42,29,39,30,48,42,45,33,31,41,30,33,42,30,32,41,36,28,30,33,33,42,41,28,47,33
13,20,17,21,19,21,21,20,12,20,17,10,21,14,18,20,10,14,10,13,23,16,8,18,19,7,17,14,5,12,24,15,19,16,16,16,16,19,16,13,15,12,14,27,28,15,14,24,22,18,19,17,17,15,19,7,20,15,18,19,23,10,18,7,6,14,16,15,15,17,19,26,13,10,26,16,15,16,18,12,20,14,9,17,20,13,19,15,9,22,14,14,14,15,16,13,9,15,16,16,28,31,38,34,33,32,33,34,28,48,26,32,21,42,30,45,26,36,32,31,17,28,31,27,26,32,43,44,32,32,34,31,1e+08,26,33,36,31,35,19,43,30,35,27,29,30,31,25,41,36,26,32,18,40,46,31,32,27,37,38,47,25,28,28,29,46,34,27,40,26,32,33,34,32,29,34,32,27,39,32,29,34,43,36,32,43,37,37,41,41,33,34,19,43,29,35,31,34,44,31,38
12,8,11,12,14,13,13,10,24,18,22,10,19,24,13,11,11,24,13,20,14,10,9,11,12,25,12,7,8,19,16,10,23,14,15,26,10,18,15,18,13,16,18,11,13,17,20,14,15,19,21,16,26,16,18,15,17,27,14,20,11,10,16,18,23,19,19,20,22,16,16,19,12,22,19,12,16,16,27,22,14,20,10,18,17,15,24,17,8,16,19,20,22,23,14,21,16,16,12,20,41,35,27,35,28,35,28,36,41,24,37,34,22,23,19,27,35,33,34,37,28,39,29,38,29,33,28,32,35,31,28,39,26,1e+08,26,28,28,30,28,29,37,29,35,31,34,32,39,23,38,39,39,38,27,27,38,38,41,22,28,27,33,31,28,32,24,26,39,26,28,40,39,35,36,38,30,32,41,31,35,31,40,25,33,33,27,32,31,23,33,31,39,29,26,31,24,36,36,24,39,30
17,9,18,16,20,16,17,20,9,19,15,6,13,12,19,23,7,14,9,17,20,16,15,14,19,14,20,16,12,16,19,10,21,16,10,17,13,17,20,16,13,17,22,11,15,13,17,21,23,13,16,17,21,14,15,18,14,18,20,17,18,17,15,14,14,19,11,16,15,16,16,14,17,16,14,17,16,17,19,19,17,19,11,17,19,18,16,17,17,24,17,21,18,14,17,17,17,18,14,8,26,30,34,32,34,28,31,33,35,34,32,39,24,27,26,34,28,35,33,26,28,29,35,30,24,33,31,35,21,29,31,30,33,26,1e+08,38,29,33,29,31,27,28,35,30,34,33,31,33,31,25,30,24,29,36,36,34,29,35,30,36,34,28,26,30,27,30,29,40,27,32,33,35,30,31,26,42,31,36,31,29,29,31,39,33,34,35,31,35,29,34,35,29,38,30,25,35,27,41,30,32
19,12,16,15,13,17,17,14,14,17,16,13,17,10,16,21,11,11,12,21,13,13,18,15,20,15,13,17,8,15,15,17,15,13,11,10,13,15,16,12,9,15,18,12,11,13,15,18,19,12,12,18,14,11,15,16,16,17,18,14,22,18,10,13,14,18,13,17,13,19,16,14,16,20,15,15,13,14,17,16,17,18,12,14,19,13,12,16,18,17,15,10,14,14,13,16,22,20,14,9,27,36,37,32,39,39,42,36,38,37,31,40,24,34,32,41,31,29,32,33,25,33,33,27,24,34,36,37,32,34,33,32,36,28,38,1e+08,31,34,25,36,34,33,36,36,36,34,32,37,31,33,28,26,33,38,33,33,28,36,31,37,26,34,33,34,32,33,33,36,28,35,33,33,31,35,33,38,36,38,34,36,29,34,32,32,36,31,35,35,32,32,32,31,40,34,27,38,30,46,32,39
19,22,15,19,21,16,15,17,19,11,16,17,16,16,10,15,11,22,13,18,13,11,15,15,20,16,13,14,22,25,20,16,19,19,18,16,15,17,20,14,19,15,19,19,17,16,18,15,16,20,19,17,12,12,18,18,11,17,21,17,21,18,21,18,18,16,13,17,24,18,13,15,16,22,13,24,20,18,19,17,14,15,20,16,14,20,13,21,19,13,18,17,19,13,20,14,12,15,18,17,37,29,31,39,22,39,30,35,38,32,36,36,28,27,30,30,34,34,35,32,30,34,44,35,25,37,37,31,32,38,44,41,31,28,29,31,1e+08,35,26,33,34,32,38,38,36,35,36,32,38,31,34,27,33,31,35,39,38,37,33,31,24,32,34,29,37,36,38,39,30,40,36,38,35,36,40,32,34,34,33,37,32,36,36,34,30,39,32,37,39,42,32,26,30,31,37,37,36,34,35,33
17,20,14,24,26,28,25,16,15,14,18,18,29,23,16,20,4,31,9,19,22,15,25,24,14,15,16,11,7,14,25,24,19,29,22,31,22,26,20,17,20,14,19,25,31,16,18,33,19,27,16,12,17,20,23,23,20,22,14,24,16,6,35,12,15,23,23,29,17,25,22,27,25,30,15,27,26,35,21,28,21,14,31,19,23,27,18,31,6,22,24,25,16,32,19,16,6,22,26,19,34,31,31,48,35,41,36,40,42,35,36,37,20,27,25,33,31,45,54,38,29,34,39,33,27,32,36,40,35,32,46,37,35,30,33,34,35,1e+08,33,37,39,32,51,39,31,32,28,35,45,29,31,23,37,32,38,39,31,32,41,37,25,33,27,32,39,33,31,41,24,37,32,38,47,40,37,36,45,34,38,30,39,45,41,37,32,39,44,33,50,42,41,32,32,27,33,39,35,32,40,34
12,8,29,14,21,17,13,11,17,17,17,6,15,23,19,29,4,19,7,36,16,12,30,14,8,24,26,10,6,22,18,6,19,22,18,20,24,12,23,19,27,9,16,8,11,15,13,18,17,17,15,14,19,17,18,18,19,16,16,17,12,11,21,13,18,24,16,29,12,19,17,19,20,20,14,18,13,23,14,20,9,16,22,11,23,25,13,25,12,18,16,19,18,30,13,12,15,14,15,12,30,25,17,33,28,33,20,31,37,20,32,27,23,16,15,23,28,26,37,32,48,33,31,31,24,27,20,23,23,30,33,26,19,28,29,25,26,33,1e+08,18,34,18,44,35,27,32,26,15,34,24,26,33,18,18,25,36,31,16,24,21,33,28,20,28,19,16,25,25,23,35,29,30,41,31,31,31,38,23,35,31,29,18,24,32,18,25,24,18,26,32,40,45,19,27,18,34,35,20,38,25
20,15,20,24,17,23,19,23,8,23,18,18,23,13,19,16,9,12,14,10,20,13,17,21,20,16,15,16,4,14,22,11,19,22,16,21,18,14,21,14,19,16,13,16,21,16,18,15,13,18,18,17,14,22,16,14,24,16,17,14,18,15,16,15,14,14,15,17,17,19,16,18,15,16,20,17,18,16,18,15,21,12,15,17,21,13,21,13,16,20,13,13,15,15,18,17,19,21,19,14,30,32,36,37,34,38,39,31,32,46,29,36,22,41,31,38,33,45,31,31,20,33,33,32,23,32,38,37,31,34,37,39,43,29,31,36,33,37,18,1e+08,36,32,36,30,33,29,33,39,33,29,34,21,49,44,33,33,31,41,40,44,29,41,26,33,41,35,30,35,29,39,32,29,34,36,31,37,34,40,37,37,36,37,46,31,46,34,41,40,39,29,33,21,49,33,38,33,37,40,30,40
15,16,16,19,10,15,14,15,15,16,20,13,20,15,13,12,8,21,14,12,11,11,21,19,15,22,9,16,8,24,10,13,17,22,19,25,18,10,18,14,20,22,16,12,17,21,22,16,12,17,15,17,21,23,14,19,16,19,12,16,14,9,20,20,23,17,18,20,17,20,14,15,18,24,20,25,19,18,23,20,11,17,21,18,20,12,21,13,14,16,19,20,17,16,20,24,12,19,23,23,44,37,24,34,27,45,25,43,42,26,39,35,29,29,25,37,42,35,37,40,28,47,38,48,27,36,32,33,32,44,38,47,30,37,27,34,34,39,34,36,1e+08,21,46,39,40,36,38,26,41,35,42,34,36,29,39,46,43,29,39,29,25,44,33,28,34,27,44,34,30,46,38,44,40,35,38,30,42,36,47,44,49,38,36,39,27,36,35,26,36,44,36,26,29,35,32,39,40,27,41,38
19,16,21,18,10,18,14,17,15,13,20,16,14,8,8,10,19,19,11,12,19,17,15,18,20,16,9,15,21,13,24,17,17,17,18,14,14,14,16,15,15,20,14,25,16,15,16,17,15,16,15,17,18,15,19,11,18,13,25,17,12,17,16,15,14,12,12,17,17,18,18,15,15,11,17,17,14,10,17,11,23,18,14,15,17,14,16,11,18,11,16,14,18,12,19,13,25,18,18,13,28,29,36,30,25,31,43,28,26,27,28,31,31,38,28,36,30,30,31,32,17,29,31,27,20,30,33,31,34,29,30,31,35,29,28,33,32,32,18,32,21,1e+08,29,28,32,28,28,42,28,25,29,20,35,37,29,28,30,32,32,29,20,30,32,31,38,36,30,32,26,28,28,28,25,28,25,27,27,32,30,32,31,29,31,30,34,33,37,34,32,26,26,21,34,26,35,27,29,36,31,33
13,15,16,16,25,14,18,16,22,21,21,15,26,26,16,21,8,20,12,23,19,15,22,19,13,24,21,11,9,21,20,15,20,20,27,23,23,20,21,22,23,14,21,16,23,15,18,27,23,22,17,17,22,21,21,20,21,21,13,24,15,12,25,12,17,23,17,20,19,27,21,24,22,26,21,22,23,27,21,22,13,19,27,18,23,25,16,25,13,23,20,21,17,24,17,17,15,19,19,19,42,34,28,51,37,42,34,46,43,32,38,39,24,23,22,35,41,45,52,38,35,40,40,38,24,37,38,42,31,41,47,38,27,35,35,36,38,51,44,36,46,29,1e+08,45,40,43,33,33,48,34,36,36,35,36,43,46,38,28,37,34,34,34,31,39,35,26,37,40,26,39,38,37,52,42,44,42,52,36,39,38,42,44,37,38,31,36,35,29,45,40,49,34,31,30,33,40,41,30,44,37
21,20,14,18,17,18,17,16,18,14,17,19,19,16,12,16,12,17,13,14,12,11,19,19,15,21,12,14,15,18,19,12,18,19,25,19,24,22,13,19,20,18,17,11,17,23,15,11,13,20,18,17,21,17,21,16,17,15,15,18,22,12,20,22,21,12,17,17,16,19,14,25,15,13,21,17,16,13,15,15,16,13,22,15,23,23,14,14,13,19,18,15,19,11,16,14,9,17,16,18,38,32,27,40,27,43,31,38,40,32,39,34,27,27,25,33,38,38,38,39,33,40,39,38,27,32,34,33,35,40,47,38,29,31,30,36,38,39,35,30,39,28,45,1e+08,33,39,33,27,38,30,33,33,32,29,31,47,36,34,34,30,29,35,27,27,37,32,40,33,30,46,38,38,41,41,41,34,46,37,38,36,40,38,30,35,27,35,30,27,37,41,37,33,27,27,32,45,35,30,44,30
16,14,14,13,13,13,13,15,15,19,18,13,13,11,12,14,9,12,7,14,17,8,16,11,14,19,14,8,11,15,13,13,19,14,13,16,13,17,12,14,16,20,16,16,17,14,20,15,15,16,21,15,24,17,17,19,12,19,14,21,14,12,15,18,17,16,16,18,17,14,16,15,13,20,17,14,11,13,17,20,18,22,12,22,16,11,19,12,10,17,18,16,22,14,16,22,19,15,16,21,38,33,30,31,28,39,29,31,40,28,34,31,27,22,23,30,39,31,27,39,29,39,37,40,25,39,31,33,36,40,38,47,30,34,34,36,36,31,27,33,40,32,40,33,1e+08,42,39,33,34,38,38,30,30,35,33,48,41,32,36,31,26,45,37,28,31,33,43,32,31,41,34,39,36,36,35,36,35,31,41,40,45,33,33,38,33,31,40,29,29,35,30,23,30,38,27,41,37,33,39,34
13,14,12,12,21,13,16,10,16,19,22,12,18,16,14,14,13,15,10,20,11,9,13,13,14,21,16,13,9,18,15,14,16,17,18,20,16,16,16,21,12,13,21,14,13,13,21,17,20,22,21,18,22,18,25,14,21,20,13,23,16,17,23,17,17,14,14,20,18,22,20,18,19,19,17,18,22,21,20,17,15,15,21,14,21,18,14,19,13,18,17,20,16,16,18,16,22,21,16,12,42,42,31,37,34,43,32,41,41,30,34,33,27,28,25,34,42,36,35,37,30,40,38,40,24,41,30,30,33,42,44,36,31,32,33,34,35,32,32,29,36,28,43,39,42,1e+08,38,35,42,35,41,31,34,35,35,43,45,30,37,33,25,38,30,35,32,27,39,40,30,42,37,39,47,33,38,33,41,36,39,38,42,36,37,42,34,33,34,31,35,39,38,32,30,36,29,41,38,33,42,39
11,10,12,15,12,13,12,8,17,16,16,15,16,14,11,14,12,15,9,12,11,9,10,11,12,17,11,9,11,14,12,14,17,10,14,15,16,14,11,19,14,19,17,8,10,17,13,16,12,16,16,13,20,17,16,13,15,21,11,14,13,16,16,19,19,13,11,16,14,14,14,15,10,17,14,14,15,16,14,22,15,17,13,15,17,15,16,15,12,12,17,17,17,10,11,19,11,13,12,19,41,35,27,31,25,39,30,34,41,27,37,31,28,28,21,29,38,29,27,35,28,43,31,39,30,39,31,31,34,38,35,35,25,39,31,32,36,28,26,33,38,28,33,33,39,38,1e+08,28,32,37,38,30,31,30,31,40,41,26,33,29,23,41,34,31,29,29,42,31,36,40,42,43,32,36,37,28,30,31,35,39,40,30,31,38,30,29,33,27,29,34,28,23,25,39,30,38,37,29,37,34
18,20,16,19,20,24,21,25,10,20,18,12,18,15,15,14,13,15,10,9,20,24,11,20,22,10,13,17,11,6,24,15,17,16,21,15,18,21,15,14,16,10,13,22,23,16,15,17,17,15,17,12,14,15,18,8,20,16,20,17,17,18,22,5,7,18,15,14,12,18,18,20,16,6,15,17,16,15,17,14,13,14,12,17,20,16,17,13,18,19,19,17,14,17,20,12,18,24,14,15,28,30,44,33,35,34,51,32,33,40,28,38,30,41,31,39,29,34,26,25,16,31,39,26,19,31,45,41,32,25,37,34,41,23,33,37,32,35,15,39,26,42,33,27,33,35,28,1e+08,30,27,31,18,41,50,32,24,28,42,37,38,16,30,29,34,40,36,29,41,24,33,28,31,28,36,32,30,25,39,35,28,34,40,40,33,41,32,41,46,38,32,32,17,40,27,38,30,30,41,27,43
15,16,15,16,17,15,13,13,17,13,17,12,18,25,17,16,11,21,13,16,15,11,17,16,14,21,16,11,8,16,20,10,24,14,18,22,18,15,14,14,20,19,19,19,15,16,20,23,17,23,20,22,18,16,24,19,22,17,12,25,15,11,23,14,14,24,16,23,18,21,19,22,16,25,19,18,16,23,19,20,16,15,22,20,18,23,18,19,11,16,21,20,16,25,11,13,10,14,14,17,39,38,30,43,29,44,33,42,42,28,43,40,25,21,28,33,33,40,48,43,35,40,41,45,29,37,31,33,35,37,40,41,36,38,31,31,38,45,34,33,41,28,48,38,34,42,32,30,1e+08,36,36,36,32,34,39,44,40,27,30,28,29,40,30,36,36,31,35,36,27,42,39,38,49,40,37,31,46,34,39,35,45,38,36,43,30,38,35,25,38,46,41,34,31,35,30,40,38,31,39,39
7,9,12,7,15,11,13,8,16,16,18,11,15,13,11,13,12,15,9,14,15,12,15,10,10,20,10,12,11,13,15,16,16,20,14,17,13,17,12,23,12,22,22,9,11,18,19,10,12,15,17,16,25,22,18,17,13,14,11,23,14,16,15,18,19,10,14,18,15,16,16,11,19,15,17,10,14,10,15,19,11,22,11,16,15,23,18,17,12,16,17,21,20,12,10,13,15,15,19,13,40,30,25,29,31,37,27,33,44,27,39,35,26,24,19,26,44,32,29,43,29,41,28,35,27,34,31,25,42,40,32,43,26,39,25,33,31,29,24,29,35,25,34,30,38,35,37,27,36,1e+08,41,35,28,28,34,38,35,24,34,25,26,39,33,31,33,25,40,28,28,42,49,36,37,48,36,32,39,37,36,39,46,25,28,31,26,33,34,26,30,33,29,32,28,36,28,38,42,28,40,34
7,17,13,14,21,15,14,9,12,19,19,10,20,13,17,13,16,23,11,19,18,6,11,12,16,21,11,14,11,13,19,11,22,15,12,21,15,23,14,18,22,26,17,17,13,19,14,15,15,22,24,15,23,28,22,17,20,24,17,19,25,16,18,25,21,16,9,26,21,17,17,16,18,13,18,11,15,14,16,26,15,24,10,15,26,20,18,14,15,19,28,26,30,19,13,19,16,17,17,15,42,31,31,36,34,42,28,37,44,33,41,36,23,24,22,30,40,28,31,39,24,39,34,40,31,35,30,29,40,43,34,40,32,39,30,28,34,31,26,34,42,29,36,33,38,41,38,31,36,41,1e+08,31,29,33,35,40,40,29,34,31,25,43,32,26,28,29,43,38,33,38,43,43,34,44,31,30,36,31,37,41,48,32,33,39,37,35,43,29,32,33,37,23,33,36,29,43,38,34,41,36
5,8,7,9,14,7,10,7,31,13,23,15,14,26,19,15,10,19,13,27,8,6,9,12,5,29,12,7,7,28,12,7,23,9,18,24,15,9,11,12,14,17,13,6,6,15,27,12,18,8,23,22,14,17,21,14,20,16,9,19,10,12,12,12,20,19,21,21,26,20,18,18,13,19,21,12,7,9,23,19,7,19,12,22,9,11,22,14,8,8,25,15,21,18,8,20,13,10,9,21,29,33,15,29,21,34,19,29,36,20,34,24,22,16,14,20,38,23,29,29,39,29,27,34,25,29,19,17,32,33,30,32,18,38,24,26,27,23,33,21,34,20,36,33,30,31,30,18,36,35,31,1e+08,20,19,26,34,35,19,22,16,35,34,29,32,18,18,32,21,23,32,35,29,40,37,30,29,38,25,37,36,37,21,19,38,18,21,27,16,25,34,36,40,18,24,22,31,39,18,40,28
26,20,18,15,17,22,20,22,15,17,21,21,21,13,6,8,9,21,19,5,12,18,15,27,15,16,8,23,9,14,19,24,14,27,21,22,17,16,16,15,15,19,15,18,24,20,17,18,12,19,15,11,14,20,20,18,19,19,18,17,8,9,20,15,17,8,27,22,16,16,25,21,22,17,20,20,26,21,21,17,26,11,26,22,20,12,19,24,15,16,12,13,8,14,19,20,9,28,23,24,29,36,36,39,25,37,37,33,31,42,28,35,17,37,30,37,30,43,34,34,17,35,38,31,21,33,43,36,37,36,34,39,40,27,29,33,33,37,18,49,36,35,35,32,30,34,31,41,32,28,29,20,1e+08,40,31,36,29,43,38,42,19,34,29,29,46,35,38,36,28,39,31,33,36,28,34,24,31,34,33,37,35,46,38,28,37,36,42,39,42,37,28,17,42,32,44,32,36,38,33,39
18,21,13,16,16,16,17,20,10,18,15,15,15,10,15,18,11,13,12,12,17,13,10,17,19,13,17,22,9,15,14,12,18,13,9,12,18,20,14,15,14,16,12,18,20,12,18,18,17,15,17,12,13,12,18,11,18,18,19,15,22,13,12,11,9,15,19,15,13,17,16,18,11,15,18,11,11,17,15,13,17,12,13,13,15,8,16,13,20,18,13,13,13,15,16,17,15,21,10,11,30,35,40,36,34,35,47,30,37,44,29,36,21,36,39,47,31,40,30,33,19,32,37,27,26,32,42,41,31,32,32,33,46,27,36,38,31,32,18,44,29,37,36,29,35,35,30,50,34,28,33,19,40,1e+08,33,36,30,45,33,49,28,29,25,34,39,38,32,42,22,36,33,28,32,30,29,36,31,42,32,33,37,42,41,32,50,36,39,40,32,31,34,23,45,30,38,35,31,51,33,37
17,18,13,14,17,14,14,12,12,20,20,14,20,12,12,17,11,20,15,16,14,13,20,17,17,21,18,15,8,20,19,15,16,20,15,25,17,19,22,19,18,23,18,15,14,16,18,17,16,21,14,13,21,19,15,22,20,19,16,15,17,12,22,22,20,16,14,20,17,20,16,13,14,23,14,21,20,20,20,20,17,15,19,13,18,18,20,16,14,22,15,19,21,18,20,18,14,24,18,16,30,31,32,36,30,36,30,38,35,33,33,47,23,27,24,30,31,37,38,35,25,31,33,35,29,37,32,37,29,33,34,35,31,38,36,33,35,38,25,33,39,29,43,31,33,35,31,32,39,34,35,26,31,33,1e+08,33,30,28,39,29,30,32,25,27,30,27,32,39,31,38,36,35,35,32,29,29,36,32,30,30,33,38,35,27,31,36,34,26,41,31,34,25,31,33,29,35,31,32,33,32
15,13,14,17,17,13,14,10,18,15,24,13,19,20,17,16,7,19,12,19,16,9,14,14,12,25,14,11,11,25,10,13,24,17,18,28,11,15,17,15,13,18,16,12,12,17,22,18,17,20,18,16,20,22,22,18,20,20,10,23,15,14,18,22,20,22,23,20,24,22,19,17,18,25,22,20,19,17,26,20,11,22,16,16,17,21,23,17,16,17,19,18,17,19,18,18,17,17,19,19,45,37,31,35,28,45,31,40,48,32,42,35,25,24,23,33,45,39,36,41,31,39,38,41,26,37,32,34,36,48,37,44,32,38,34,33,39,39,36,33,46,28,46,47,48,43,40,24,44,38,40,34,36,36,33,1e+08,43,29,38,31,30,40,32,39,34,26,46,37,28,46,42,42,48,41,39,37,41,32,44,45,49,35,33,42,29,33,37,26,38,43,42,28,28,35,31,47,37,33,48,37
15,15,10,12,15,13,11,14,20,14,19,11,18,16,13,12,11,23,12,13,14,11,11,11,15,16,12,7,10,22,14,9,21,15,13,20,11,16,16,15,11,18,15,12,16,20,21,12,14,17,23,22,19,23,16,12,12,21,15,21,17,14,23,13,24,17,13,21,24,16,13,20,14,14,22,13,18,10,17,19,13,25,13,26,21,14,22,11,11,12,23,21,23,14,12,21,18,13,15,19,48,40,30,31,26,47,31,37,43,27,39,32,28,24,26,29,41,29,34,39,30,38,32,45,27,39,31,29,34,42,35,45,27,41,29,28,38,31,31,31,43,30,38,36,41,45,41,28,40,35,40,35,29,30,30,43,1e+08,29,30,28,32,38,34,30,31,29,43,32,32,44,39,33,40,35,36,31,37,32,38,42,38,32,32,41,26,35,30,33,27,38,34,25,29,35,27,40,34,25,41,33
21,15,15,16,10,15,11,24,11,17,19,27,10,11,13,11,15,22,14,13,16,15,11,24,21,7,8,20,20,14,14,13,12,18,15,13,16,17,15,11,12,15,12,12,13,14,13,14,11,14,14,14,12,16,14,11,15,10,25,13,20,18,13,13,11,11,19,10,12,15,13,13,11,11,14,19,16,9,14,11,16,12,16,12,15,13,13,13,20,12,22,11,15,15,20,9,13,21,17,13,26,24,40,32,34,32,38,36,30,42,21,32,28,39,37,36,30,33,27,26,18,25,35,27,20,25,44,34,33,32,35,31,37,22,35,36,37,32,16,41,29,32,28,34,32,30,26,42,27,24,29,19,43,45,28,29,29,1e+08,36,39,24,33,29,33,47,39,31,34,28,35,29,29,28,33,34,32,28,41,29,28,26,39,31,31,41,32,38,44,38,32,26,24,44,26,44,27,27,45,30,34
28,17,16,22,15,20,24,19,13,18,24,19,23,14,12,18,13,17,9,14,15,18,15,19,17,23,18,20,18,23,16,20,15,23,16,19,16,19,32,16,13,22,24,14,19,15,29,27,16,22,21,26,24,17,23,24,19,22,20,28,20,16,19,23,21,17,15,16,21,22,24,23,17,26,22,27,27,25,25,21,24,17,19,18,22,15,22,16,17,23,17,17,19,16,28,27,21,20,21,15,32,31,34,40,32,35,41,32,38,36,31,32,27,36,28,29,36,53,39,34,18,31,38,31,17,29,40,33,31,33,37,33,38,28,30,31,33,41,24,40,39,32,37,34,36,37,33,37,30,34,34,22,38,33,39,38,30,36,1e+08,32,21,34,25,27,37,30,33,41,26,36,32,30,35,35,39,36,35,35,32,40,40,40,39,34,29,35,37,39,39,33,30,25,35,28,37,37,34,34,35,37
13,17,22,20,18,20,20,19,9,18,14,14,24,12,17,18,2,16,9,11,24,14,11,18,20,11,15,15,5,15,18,8,17,14,14,13,13,17,17,11,15,14,14,20,18,18,13,17,18,19,16,14,14,14,15,13,18,15,20,17,23,11,18,11,15,11,16,15,16,22,18,12,15,14,14,13,10,13,16,13,18,15,8,16,17,12,15,13,16,15,14,14,16,11,19,14,14,21,18,11,25,35,36,35,34,32,39,32,33,50,27,37,20,33,29,43,27,37,29,36,22,26,33,27,25,32,38,44,31,31,30,28,47,27,36,37,31,37,21,44,29,29,34,30,31,33,29,38,28,25,31,16,42,49,29,31,28,39,32,1e+08,29,27,25,32,39,34,27,37,24,35,34,37,27,30,31,39,31,37,30,30,31,37,37,29,50,39,34,43,35,27,35,24,52,31,35,28,33,48,33,34
13,8,21,14,21,14,21,15,18,22,20,12,21,20,18,23,6,15,11,22,20,12,22,14,13,20,23,13,5,21,14,4,17,11,13,15,21,11,23,14,20,14,12,7,6,14,12,16,17,14,15,15,15,17,14,16,13,14,10,20,14,13,14,17,16,21,20,17,16,16,13,14,14,22,20,17,14,18,14,18,11,15,12,10,18,19,13,22,14,16,17,16,19,21,10,15,19,15,16,10,26,31,23,32,24,30,19,29,28,25,30,25,18,24,18,25,27,21,26,29,41,30,26,27,22,29,21,23,21,27,26,24,25,33,34,26,24,25,33,29,25,20,34,29,26,25,23,16,29,26,25,35,19,28,30,30,32,24,21,29,1e+08,22,22,23,23,18,23,22,23,27,22,27,28,24,22,33,27,33,24,21,28,18,29,29,27,24,19,24,25,25,31,47,28,25,15,27,28,30,29,26
19,14,14,16,11,11,11,23,14,13,17,17,13,17,9,10,18,19,17,11,11,8,14,15,19,19,11,12,11,21,12,11,20,21,19,14,11,14,17,14,14,21,20,12,16,22,19,12,12,22,18,21,25,22,18,11,12,17,16,21,17,16,21,26,16,9,6,23,24,20,15,18,14,17,15,20,19,15,10,18,15,24,16,27,17,19,15,8,15,11,24,27,24,10,20,24,8,11,17,26,47,36,26,30,27,45,25,38,45,23,41,32,33,32,23,36,44,35,29,34,24,48,35,40,24,33,34,28,41,40,40,45,28,31,28,34,32,33,28,41,44,30,34,35,45,38,41,30,40,39,43,34,34,29,32,40,38,33,34,27,22,1e+08,33,25,37,34,48,32,31,40,36,35,37,41,37,27,36,35,45,41,45,32,32,38,31,31,41,30,32,41,30,26,36,34,30,46,37,28,41,35
13,15,10,12,15,15,10,10,21,12,18,10,14,17,10,13,16,16,12,9,13,13,19,14,15,16,6,15,16,16,17,17,18,11,11,17,18,10,9,13,15,16,12,19,14,20,12,8,13,12,17,18,14,15,8,14,14,18,12,9,13,17,12,12,20,12,13,14,16,14,13,13,14,15,17,15,11,11,17,14,9,16,10,22,11,16,17,16,19,17,18,15,13,13,14,15,15,13,10,17,29,30,25,28,20,37,26,29,31,23,32,30,29,27,22,29,33,26,20,34,24,36,29,34,24,35,28,26,34,42,34,38,28,28,26,33,34,27,20,26,33,32,31,27,37,30,34,29,30,33,32,29,29,25,25,32,34,29,25,25,22,33,1e+08,29,27,30,34,29,23,37,34,32,32,33,33,21,27,27,33,31,28,28,24,33,26,29,31,25,27,30,30,22,31,34,29,27,38,27,37,31
10,12,21,22,20,9,25,10,26,18,22,21,15,22,27,18,7,16,18,24,17,14,20,16,10,25,12,14,8,20,18,13,23,10,17,18,18,21,24,13,14,8,11,17,15,16,19,21,17,12,16,17,11,8,22,16,20,13,12,23,8,10,18,12,16,21,23,14,18,25,25,17,16,24,18,20,12,17,26,15,11,10,14,13,13,17,17,23,15,11,13,12,11,24,21,12,15,19,14,12,33,26,36,36,44,34,33,35,35,29,33,30,20,29,31,31,32,32,34,31,29,37,28,34,23,28,30,29,33,28,34,28,29,32,30,34,29,32,28,33,28,31,39,27,28,35,31,34,36,31,26,32,29,34,27,39,30,33,27,32,23,25,29,1e+08,34,33,26,24,25,32,32,31,39,36,37,39,40,29,29,29,38,30,34,30,37,26,35,33,32,33,38,29,33,29,36,28,35,35,30,35
19,18,18,18,13,20,15,17,13,18,21,24,23,14,11,8,17,17,12,9,12,16,13,24,22,14,10,15,13,15,15,15,15,21,22,16,11,14,16,20,14,16,18,14,18,14,14,14,8,21,18,16,19,14,22,14,19,17,20,22,15,17,20,16,16,8,17,15,19,22,16,19,13,14,20,19,19,17,18,14,21,11,19,22,22,16,20,16,16,18,14,14,13,14,16,12,11,19,20,20,33,28,36,33,34,35,38,33,31,41,25,31,27,40,30,46,36,43,34,32,19,30,37,33,21,28,51,38,38,33,34,36,46,24,27,32,37,39,19,41,34,38,35,37,31,32,29,40,36,33,28,18,46,39,30,34,31,47,37,39,23,37,27,34,1e+08,43,37,33,34,42,32,35,32,32,43,29,32,40,35,35,35,42,34,35,43,36,37,41,40,36,29,18,46,31,47,31,30,41,31,38
19,21,16,19,19,19,14,15,12,19,13,22,16,11,18,8,16,20,15,10,15,16,9,21,24,12,10,16,18,16,15,15,16,14,14,9,12,19,16,19,10,16,16,20,16,16,15,14,11,17,11,11,14,8,18,16,12,16,22,17,16,14,18,15,17,12,13,14,17,16,18,17,12,15,14,13,16,13,18,17,21,9,16,19,13,20,13,14,18,16,14,19,15,11,19,12,12,16,18,13,34,30,36,23,31,34,36,32,31,28,29,30,25,35,38,35,33,31,29,33,17,26,33,29,21,26,38,29,33,28,33,29,34,26,30,33,36,33,16,35,27,36,26,32,33,27,29,36,31,25,29,18,35,38,27,26,29,39,30,34,18,34,30,33,43,1e+08,30,31,32,27,28,31,26,27,33,27,26,35,28,31,27,34,31,28,39,32,35,40,26,30,27,19,38,32,43,29,24,37,27,31
16,15,11,17,15,15,14,13,18,15,28,12,22,16,7,11,15,20,17,16,15,9,20,20,12,23,8,17,11,24,13,15,23,21,18,23,12,15,15,13,17,20,16,16,19,27,23,9,11,18,20,12,20,29,9,15,14,26,15,14,16,10,17,26,29,13,18,22,26,16,15,15,24,23,23,22,18,12,18,21,16,20,18,21,17,15,19,18,14,15,28,24,20,15,21,24,14,18,23,22,40,33,30,27,28,44,32,32,42,34,36,31,29,30,23,34,40,34,35,35,28,49,36,42,24,34,28,27,40,37,35,46,27,39,29,33,38,31,25,30,44,30,37,40,43,39,42,29,35,40,43,32,38,32,32,46,43,31,33,27,23,48,34,26,37,30,1e+08,28,28,44,41,40,40,41,39,28,40,32,44,41,43,36,30,35,27,33,42,28,31,37,33,24,30,38,31,40,38,28,46,29
18,20,12,22,22,21,20,22,9,18,22,15,24,12,13,19,6,16,16,14,20,13,12,16,19,14,20,15,10,19,18,15,23,19,19,17,18,25,17,16,17,18,22,21,20,17,24,25,23,23,20,20,20,19,22,19,21,18,16,20,23,12,23,19,16,23,14,14,23,20,20,21,19,13,20,20,14,20,20,18,16,21,13,23,25,21,18,15,11,23,20,21,22,21,22,19,14,18,20,15,34,35,28,38,22,36,37,35,33,35,33,41,24,26,30,36,29,42,38,33,24,30,45,37,25,29,31,45,33,35,40,35,40,26,40,36,39,41,25,35,34,32,40,33,32,40,31,41,36,28,38,21,36,42,39,37,32,34,41,37,22,32,29,24,33,31,28,1e+08,26,36,34,34,31,35,34,28,35,34,32,33,33,42,43,34,36,42,37,37,41,42,36,24,37,29,34,35,34,37,32,32
7,9,13,9,7,10,12,11,10,10,10,12,9,9,9,13,18,14,10,15,9,12,8,10,11,15,12,13,11,14,18,10,19,7,13,7,13,14,12,13,11,17,14,10,12,12,15,11,12,12,16,15,16,10,19,9,13,11,14,18,9,11,10,15,12,14,8,11,13,15,16,18,8,13,16,11,11,13,14,11,14,14,11,14,12,9,18,10,9,11,11,12,17,8,14,11,13,15,12,16,35,32,24,21,29,32,25,29,30,25,35,31,26,24,20,29,31,28,27,34,22,28,29,33,27,31,31,26,28,32,31,30,26,28,27,28,30,24,23,29,30,26,26,30,31,30,36,24,27,28,33,23,28,22,31,28,32,28,26,24,23,31,23,25,34,32,28,26,1e+08,33,35,32,28,30,37,25,28,26,30,35,30,23,29,30,27,29,27,24,28,22,24,21,28,41,24,31,31,29,29,30
15,15,12,18,16,16,11,14,17,15,20,15,17,20,14,12,12,16,13,16,12,9,16,18,11,19,10,14,8,16,15,15,17,19,17,19,20,14,12,10,18,20,14,15,17,21,21,14,15,16,18,20,18,22,18,17,19,17,16,20,13,11,18,19,20,13,20,19,13,18,19,18,17,22,22,18,13,20,20,19,14,19,20,18,16,13,17,16,14,13,16,16,14,16,19,19,15,19,17,17,40,40,25,41,31,48,30,42,51,36,43,41,24,27,25,37,43,34,37,42,33,48,37,42,29,41,39,33,39,44,40,49,32,40,32,35,40,37,35,39,46,28,39,46,41,42,40,33,42,42,38,32,39,36,38,46,44,35,36,35,27,40,37,32,42,27,44,36,33,1e+08,41,37,43,43,44,34,39,32,42,46,44,40,34,47,35,36,37,34,35,45,32,30,32,39,34,42,37,34,50,32
11,12,14,15,18,14,11,9,18,13,19,10,16,14,11,11,8,17,8,14,15,12,12,11,11,20,10,12,13,18,12,17,20,17,13,19,13,17,17,25,10,20,25,12,12,18,16,13,14,17,18,13,25,16,19,20,12,20,11,20,16,17,19,21,22,13,14,19,18,13,19,17,18,17,19,15,16,14,18,20,14,23,12,16,17,22,17,25,10,15,14,22,19,15,20,17,13,19,17,15,41,36,29,29,33,40,33,32,47,29,37,37,26,26,26,30,36,34,30,40,30,43,34,39,34,35,30,32,42,41,32,36,33,39,33,33,36,32,29,32,38,28,38,38,34,37,42,28,39,49,43,35,31,33,36,42,39,29,32,34,22,36,34,32,32,28,41,34,35,41,1e+08,41,38,47,34,28,37,32,36,45,43,30,33,38,30,32,36,29,35,35,34,27,31,37,32,42,42,31,40,30
7,13,16,18,14,14,17,13,17,12,18,11,17,16,13,13,5,21,10,16,17,14,17,15,11,13,14,14,11,14,18,13,23,16,17,16,16,16,17,17,16,14,15,18,17,18,10,18,21,16,13,7,19,15,12,12,12,23,11,17,13,11,18,18,14,15,11,17,20,18,16,15,18,15,11,23,14,16,16,19,13,17,14,17,16,15,13,22,13,14,14,25,22,19,19,17,11,16,18,20,37,35,24,31,28,39,28,38,44,34,36,36,25,27,20,32,34,34,33,40,28,42,35,38,26,40,32,32,33,37,35,39,34,35,35,33,38,38,30,29,44,28,37,38,39,39,43,31,38,36,43,29,33,28,35,42,33,29,30,37,27,35,32,31,35,31,40,34,32,37,41,1e+08,34,39,35,31,35,36,37,40,38,28,31,37,32,33,36,30,35,38,38,25,32,38,32,40,35,31,42,34
15,18,17,13,21,16,14,14,21,18,24,13,21,25,17,18,5,32,16,24,14,15,28,14,14,25,19,15,6,25,16,12,22,24,22,32,24,18,22,21,25,16,19,15,18,19,25,23,14,24,20,20,19,26,20,20,25,24,15,22,16,9,25,12,24,23,25,31,20,22,20,19,24,25,27,19,19,26,27,25,16,16,25,23,22,24,21,26,11,21,24,23,16,27,14,18,16,24,21,19,42,32,21,40,37,46,32,42,45,27,41,33,26,26,24,33,37,39,47,39,32,47,37,38,24,38,28,31,34,39,41,45,32,36,30,31,35,47,41,34,40,25,52,41,36,47,32,28,49,37,34,40,36,32,35,48,40,28,35,27,28,37,32,39,32,26,40,31,28,43,38,34,1e+08,40,43,38,53,30,41,40,47,37,34,39,24,34,36,24,42,41,48,32,32,32,31,44,38,28,39,38
10,11,16,14,22,17,12,14,12,17,16,13,19,12,17,14,6,18,7,17,17,10,13,11,18,10,15,12,10,16,19,16,17,17,17,18,20,20,13,20,21,10,25,16,17,15,20,18,20,19,15,19,18,25,17,20,15,23,16,20,21,15,20,15,19,25,9,21,17,22,18,18,20,14,18,17,12,15,20,21,12,19,19,20,21,26,18,24,13,16,21,22,22,19,11,21,10,14,16,14,37,28,29,38,34,40,34,34,41,31,45,40,22,28,25,31,39,37,35,37,29,39,38,32,25,29,35,30,53,39,38,38,29,38,31,35,36,40,31,36,35,28,42,41,36,33,36,36,40,48,44,37,28,30,32,41,35,33,35,30,24,41,33,36,32,27,41,35,30,43,47,39,40,1e+08,38,39,41,37,39,39,46,38,35,40,32,33,42,33,35,38,35,34,35,36,28,46,49,34,41,37
19,20,11,11,19,15,15,20,18,12,19,17,18,18,15,15,16,16,15,18,12,14,11,12,20,20,8,16,24,20,21,15,22,14,26,15,21,19,19,21,15,18,17,11,14,15,19,19,20,25,25,19,22,10,28,11,19,12,12,25,21,18,27,20,14,18,15,14,22,24,18,29,10,18,23,21,15,18,17,13,17,12,14,16,21,22,15,16,19,11,22,20,17,13,17,10,12,12,12,18,40,35,26,38,28,42,29,39,43,30,39,36,30,27,22,31,48,40,39,38,32,37,38,34,20,38,42,30,36,39,51,42,34,30,26,33,40,37,31,31,38,25,44,41,35,38,37,32,37,36,31,30,34,29,29,39,36,34,39,31,22,37,33,37,43,33,39,34,37,44,34,35,43,38,1e+08,37,42,34,37,36,38,31,32,32,30,41,34,29,38,44,32,29,30,30,31,37,42,29,36,37
13,12,21,16,21,20,23,18,21,17,18,8,17,19,21,29,5,14,4,23,21,17,20,11,15,22,21,13,4,17,21,8,13,16,19,18,19,17,21,19,14,15,14,12,16,17,16,20,24,16,17,20,12,20,21,17,22,17,20,19,18,13,16,15,17,19,18,20,15,24,23,23,17,21,20,20,17,15,16,18,14,20,17,15,20,18,11,17,16,19,14,18,18,13,15,14,25,19,16,8,32,30,37,38,36,30,33,35,36,38,34,38,21,30,23,31,32,33,38,33,27,33,35,33,24,35,30,34,23,36,34,29,32,32,42,38,32,36,31,37,30,27,42,34,36,33,28,30,31,32,30,29,24,36,29,37,31,32,36,39,33,27,21,39,29,27,28,28,25,34,28,31,38,39,37,1e+08,40,35,32,31,41,28,36,30,37,34,36,35,33,30,40,31,38,27,29,31,37,37,31,40
14,20,11,15,21,11,13,11,20,21,28,17,21,18,20,19,5,20,17,25,15,10,21,18,15,26,18,13,7,28,15,8,20,20,26,26,24,20,24,18,18,20,26,16,15,19,26,19,21,23,20,23,23,23,20,20,22,20,14,23,17,10,23,20,24,20,20,18,22,32,23,19,19,23,24,26,20,20,27,18,14,16,21,16,18,17,17,17,12,18,17,22,17,22,23,19,21,19,24,16,41,34,27,43,34,43,29,43,46,29,39,34,25,25,23,31,38,41,45,40,34,40,44,41,24,32,31,36,30,39,44,39,27,41,31,36,34,45,38,34,42,27,52,46,35,41,30,25,46,39,36,38,31,31,36,41,37,28,35,31,27,36,27,40,32,26,40,35,28,39,37,35,53,41,42,40,1e+08,38,38,31,48,34,36,35,28,34,38,25,43,38,44,36,31,30,33,37,39,33,40,36
18,14,16,11,13,15,15,15,9,21,13,15,18,10,13,14,8,10,12,15,13,12,11,12,18,16,16,18,7,13,11,13,14,16,10,18,14,19,18,15,5,14,16,11,10,13,14,12,14,14,8,13,16,18,9,16,15,17,17,13,23,18,16,14,16,12,12,11,14,12,11,11,11,17,13,17,16,13,14,16,17,13,11,7,17,14,10,15,17,23,12,14,13,11,19,13,21,25,16,9,36,31,43,33,42,39,40,36,33,40,28,39,31,42,36,46,31,39,35,32,24,36,34,32,22,29,43,42,30,36,36,30,39,31,36,38,34,34,23,40,36,32,36,37,31,36,31,39,34,37,31,25,34,42,32,32,32,41,35,37,33,35,27,29,40,35,32,34,26,32,32,36,30,37,34,35,38,1e+08,29,33,36,34,40,35,39,40,39,40,37,29,30,25,37,28,37,32,31,42,33,43
15,12,13,15,21,14,12,15,18,17,20,13,18,19,11,13,12,18,8,18,14,13,12,14,17,19,15,10,11,16,19,14,20,16,19,20,15,13,13,9,15,19,10,13,22,18,19,15,18,15,18,20,14,18,16,13,21,16,15,17,14,11,15,14,17,17,15,20,21,18,20,17,12,16,22,11,11,14,21,18,17,19,15,25,15,14,20,13,12,17,18,20,19,17,15,15,12,13,15,15,43,40,27,33,27,42,33,37,43,30,36,33,25,27,21,33,47,31,38,37,31,37,33,42,27,41,28,35,33,41,36,48,32,35,31,34,33,38,35,37,47,30,39,38,41,39,35,35,39,36,37,37,33,32,30,44,38,29,32,30,24,45,33,29,35,28,44,32,30,42,36,37,41,39,37,32,38,29,1e+08,42,48,30,32,47,29,34,40,27,32,40,39,30,29,32,29,43,42,31,46,37
16,15,13,16,15,13,13,18,14,16,18,11,14,14,12,11,13,11,12,11,10,11,16,13,14,23,9,15,11,14,12,16,22,16,23,13,13,17,15,19,16,21,16,15,17,16,15,10,8,17,21,12,23,17,16,21,14,20,13,19,17,13,14,20,19,10,15,20,17,14,13,17,17,15,17,20,15,16,18,17,17,19,16,15,20,21,19,20,19,14,15,13,18,12,20,16,12,17,16,25,35,37,28,35,27,46,29,33,37,29,38,31,28,29,27,34,46,34,31,44,27,41,40,37,26,37,36,30,38,41,40,42,29,31,29,36,37,30,31,37,44,32,38,36,40,38,39,28,35,39,41,36,37,33,30,45,42,28,40,30,21,41,31,29,35,31,41,33,35,46,45,40,40,39,36,31,31,33,42,1e+08,44,33,34,38,29,34,38,29,33,38,31,23,33,39,33,40,45,29,41,36
14,17,14,11,16,11,18,13,16,13,18,10,19,16,13,15,8,21,9,15,15,13,17,11,12,24,13,10,9,17,14,12,19,21,18,25,12,18,19,19,18,27,18,13,15,19,15,21,14,23,20,12,27,23,20,19,15,23,9,22,19,9,21,26,21,23,16,21,18,15,14,20,17,22,15,18,16,17,19,24,17,20,17,17,19,17,24,14,14,19,22,27,25,18,19,20,13,18,15,24,49,34,28,43,33,44,33,33,49,32,43,32,25,26,24,28,42,40,41,41,30,48,37,42,25,36,34,33,41,39,41,45,34,40,29,29,32,39,29,36,49,31,42,40,45,42,40,34,45,46,48,37,35,37,33,49,38,26,40,31,28,45,28,38,35,27,43,33,30,44,43,38,47,46,38,41,48,36,48,44,1e+08,30,34,40,33,35,52,21,38,38,40,31,29,35,33,55,50,31,46,39
26,26,15,28,24,21,23,22,12,17,28,25,24,16,14,14,6,21,20,10,19,14,16,31,17,13,12,16,5,18,22,25,18,25,22,22,17,27,15,13,14,19,18,27,26,19,19,25,23,18,20,17,16,14,18,23,18,16,23,19,14,9,23,16,23,15,27,19,17,18,23,21,22,14,25,24,28,27,26,17,25,19,23,22,23,15,16,18,12,22,17,13,13,20,29,25,9,22,24,23,24,34,39,42,28,41,42,34,32,43,28,37,16,30,34,39,26,48,47,35,20,33,46,30,18,29,44,42,34,35,38,33,43,25,31,34,36,45,18,37,38,29,44,38,33,36,30,40,38,25,32,21,46,42,38,35,32,39,40,37,18,32,28,30,42,34,36,42,23,40,30,28,37,38,31,28,34,34,30,33,30,1e+08,39,34,37,41,34,37,48,33,37,20,36,30,37,35,30,35,37,34
16,21,16,19,19,15,25,17,11,26,20,18,21,13,21,22,4,16,9,14,18,21,13,17,24,15,19,14,4,20,22,14,21,20,18,20,17,22,26,20,14,19,22,22,23,15,20,29,22,21,17,21,23,19,18,17,15,19,20,20,19,14,21,15,18,24,15,14,20,20,18,19,14,19,18,19,18,23,21,21,14,23,15,18,25,14,21,16,13,28,16,18,28,17,22,21,22,23,17,17,35,33,32,40,33,35,34,34,33,40,30,39,26,27,22,37,32,38,36,29,22,36,36,32,24,33,38,40,30,30,36,31,36,33,39,32,36,41,24,46,36,31,37,30,33,37,31,40,36,28,33,19,38,41,35,33,32,31,39,37,29,32,24,34,34,31,30,43,29,34,33,31,34,35,32,36,36,40,32,34,34,39,1e+08,35,40,34,36,34,45,30,37,27,38,29,31,28,34,36,31,35
13,14,9,13,15,12,15,14,20,14,24,15,16,19,12,14,11,23,10,22,13,13,11,17,11,18,14,7,7,21,17,12,25,18,17,25,23,18,16,15,12,21,18,17,19,17,23,19,16,17,22,20,19,21,21,11,18,22,17,22,17,10,19,11,17,22,19,21,23,17,18,22,13,19,26,17,15,19,24,22,14,21,15,31,18,20,27,15,12,17,22,17,19,27,15,22,14,20,16,25,40,34,28,33,31,47,33,32,37,33,34,31,28,24,22,34,46,35,39,33,32,41,33,41,23,40,31,35,33,42,38,41,32,33,33,32,34,37,32,31,39,30,38,35,38,42,38,33,43,31,39,38,28,32,27,42,41,31,34,29,29,38,33,30,35,28,35,34,30,47,38,37,39,40,32,30,35,35,47,38,40,34,35,1e+08,31,31,36,30,32,40,40,30,29,32,29,38,35,31,45,35
16,18,20,20,18,18,25,12,13,17,16,20,19,12,20,19,12,15,6,14,27,15,11,22,22,14,17,16,7,18,21,12,21,12,12,14,16,16,20,12,15,16,18,25,15,20,15,22,19,18,16,14,20,13,18,14,18,14,21,21,17,11,16,19,17,17,17,13,20,23,21,14,13,19,14,16,13,15,21,17,22,16,11,16,19,15,17,15,15,13,16,16,20,18,17,18,18,24,16,12,25,28,36,36,37,32,35,37,35,43,24,37,22,37,36,35,29,36,28,26,18,30,34,30,23,30,40,41,34,28,33,30,43,27,34,36,30,32,18,46,27,34,31,27,33,34,30,41,30,26,37,18,37,50,31,29,26,41,29,50,27,31,26,37,43,39,27,36,27,35,30,32,24,32,30,37,28,39,29,29,33,37,40,31,1e+08,33,41,38,38,26,33,19,50,30,33,35,30,49,31,37
25,20,13,22,25,22,13,20,13,14,17,20,23,15,11,13,9,19,15,14,15,17,18,20,16,16,17,18,16,16,14,21,18,24,21,25,18,24,18,19,17,18,19,17,19,19,19,21,16,18,14,15,19,16,16,24,13,18,15,17,18,10,22,20,21,18,20,19,16,15,20,18,24,19,19,19,20,22,23,22,18,12,21,20,23,22,18,22,15,19,15,15,12,18,20,15,14,24,19,19,34,36,29,34,28,36,28,35,36,37,28,39,28,29,29,41,34,38,37,32,22,37,41,37,23,32,40,44,27,31,39,33,37,32,35,31,39,39,25,34,36,33,36,35,31,33,29,32,38,33,35,21,36,36,36,33,35,32,35,39,24,31,29,26,36,32,33,42,29,36,32,33,34,33,41,34,34,40,34,34,35,41,34,31,33,1e+08,32,37,33,35,35,19,33,26,33,36,26,30,32,29
16,19,17,17,20,16,21,14,18,23,23,18,18,13,21,15,10,22,9,17,16,13,13,16,25,22,13,14,11,18,22,16,21,14,15,16,18,21,15,12,19,24,14,21,24,22,19,20,18,18,24,14,21,19,19,18,20,26,20,21,13,10,17,22,24,22,19,22,20,19,20,24,13,18,24,16,13,18,21,28,21,26,18,16,18,9,22,14,11,23,18,22,28,17,20,23,16,19,16,25,41,35,41,39,31,38,39,32,36,38,30,36,21,30,29,37,42,39,34,33,23,36,37,31,21,33,33,41,49,35,41,42,37,31,31,35,32,44,24,41,35,37,35,30,40,34,33,41,35,34,43,27,42,39,34,37,30,38,37,34,19,41,31,35,37,35,42,37,27,37,36,36,36,42,34,36,38,39,40,38,52,34,36,36,41,32,1e+08,37,42,35,35,23,38,31,36,39,38,43,33,42
17,17,21,20,22,17,13,19,7,21,16,14,17,13,16,13,10,19,14,10,16,16,8,17,20,7,14,21,13,11,16,16,16,15,12,14,15,15,12,7,11,8,10,19,21,15,11,14,13,9,9,12,9,15,12,9,13,15,23,15,19,16,18,10,12,13,11,11,12,15,15,17,12,13,16,18,12,10,10,13,16,11,15,15,15,10,11,13,19,16,11,11,10,16,20,8,11,16,16,11,26,31,44,32,35,33,41,27,27,44,24,32,25,41,36,42,27,31,25,26,17,23,32,26,18,29,49,37,28,30,28,30,41,23,35,35,37,33,18,40,26,34,29,27,29,31,27,46,25,26,29,16,39,40,26,26,33,44,39,43,24,30,25,33,41,40,28,37,24,34,29,30,24,33,29,35,25,40,27,29,21,37,34,30,38,37,37,1e+08,34,29,28,21,46,28,41,27,28,39,26,34
23,15,14,23,24,21,20,19,16,18,27,19,25,19,11,13,7,27,11,15,21,14,19,21,17,18,15,13,8,17,23,20,20,31,19,27,18,24,24,20,21,16,19,20,23,17,16,23,18,24,17,12,23,23,19,25,23,26,19,21,17,11,27,19,22,16,22,25,19,20,24,23,23,20,19,28,31,28,26,21,23,19,24,14,25,19,18,30,11,23,16,17,15,21,25,16,12,29,24,21,28,31,27,47,33,34,31,39,30,33,33,36,22,28,26,34,33,44,50,33,22,30,38,32,22,32,38,43,31,35,42,32,41,33,29,32,39,50,26,39,36,32,45,37,29,35,29,38,38,30,32,25,42,32,41,38,27,38,39,35,25,32,27,32,40,26,31,41,28,35,35,35,42,35,38,33,43,37,32,33,38,48,45,32,38,33,42,34,1e+08,40,40,26,35,30,32,35,37,35,33,30
19,16,16,16,20,17,16,18,18,10,19,17,21,19,15,13,8,19,15,16,13,17,15,19,14,18,10,13,13,20,17,18,18,20,21,22,14,14,16,15,18,10,16,16,18,22,21,21,20,20,18,19,12,20,20,15,24,24,11,17,16,14,26,15,13,13,21,17,23,25,22,25,18,19,18,18,16,19,24,17,12,14,21,22,19,24,13,20,19,12,22,20,11,18,12,14,10,16,15,21,40,38,26,36,21,42,27,42,41,28,37,36,28,29,25,37,42,35,41,36,27,33,42,40,24,42,33,30,34,36,43,41,33,31,34,32,42,42,32,29,44,26,40,41,35,39,34,32,46,33,33,34,37,31,31,43,38,32,33,27,25,41,30,33,36,30,37,42,22,45,35,38,41,38,44,30,38,29,40,38,38,33,30,40,26,35,35,29,40,1e+08,35,27,29,34,35,41,32,25,42,39
10,10,16,20,29,18,23,16,19,19,28,15,21,23,15,17,5,27,11,26,25,13,15,20,13,28,23,13,4,16,28,15,29,23,22,29,17,21,24,23,20,15,21,18,19,13,24,23,30,16,19,21,25,23,27,18,27,25,14,27,18,13,25,11,17,24,25,27,23,27,28,28,22,23,22,26,25,28,30,20,15,24,16,20,24,23,24,25,12,23,23,21,19,23,22,14,19,23,24,14,33,32,29,49,30,41,35,37,39,28,36,34,20,25,22,34,31,37,42,33,30,35,39,38,23,38,28,36,29,32,38,36,34,39,35,32,32,41,40,33,36,26,49,37,30,38,28,32,41,29,37,36,28,34,34,42,34,26,30,35,31,30,30,38,29,27,33,36,24,32,34,38,48,35,32,40,44,30,39,31,40,37,37,40,33,35,35,28,40,35,1e+08,32,30,29,27,44,37,32,39,35
8,10,20,14,18,13,16,15,23,13,16,12,12,23,23,21,4,16,11,31,17,15,20,15,8,23,21,6,5,19,18,8,15,16,22,18,21,14,20,13,19,13,16,5,9,11,22,17,22,14,16,20,16,16,22,14,18,8,14,23,13,5,18,8,13,20,15,19,16,25,21,24,15,20,20,16,10,23,19,16,12,8,21,12,17,18,15,19,6,16,14,15,14,24,10,8,13,11,7,7,30,32,19,33,31,28,23,28,32,18,30,26,19,19,16,22,26,24,35,27,45,29,26,25,23,26,19,18,19,24,29,28,19,29,29,31,26,32,45,21,26,21,34,33,23,32,23,17,34,32,23,40,17,23,25,28,25,24,25,24,47,26,22,29,18,19,24,24,21,30,27,25,32,34,29,31,36,25,30,23,31,20,27,30,19,19,23,21,26,27,32,1e+08,21,23,18,30,34,28,29,27
16,16,22,21,13,20,23,15,12,21,13,19,21,8,16,22,12,13,15,12,24,17,9,21,25,16,24,24,8,20,24,13,24,13,11,13,19,13,16,14,18,21,15,19,18,19,18,17,20,15,15,13,20,14,19,17,18,15,20,21,22,19,11,16,18,12,14,16,21,23,22,11,16,19,15,17,12,17,21,15,21,22,10,16,18,12,19,13,18,23,15,13,24,17,19,18,23,22,21,10,26,33,40,38,35,33,36,32,26,46,26,37,22,37,33,46,30,38,26,28,17,30,30,30,21,29,40,37,32,33,31,30,43,26,38,40,30,32,19,49,29,34,31,27,30,30,25,40,31,28,33,18,42,45,31,28,29,44,35,52,28,36,31,33,46,38,30,37,28,32,31,32,32,35,30,38,31,37,29,33,29,36,38,29,50,33,38,46,35,29,30,21,1e+08,33,40,27,35,52,29,39
6,14,10,11,16,10,10,10,10,16,12,10,16,9,12,12,12,14,10,13,14,12,13,12,16,11,12,10,11,10,20,8,15,12,15,12,19,12,11,15,18,15,12,18,12,11,10,12,15,13,13,12,14,18,17,8,15,17,12,18,12,9,14,16,11,14,7,15,9,18,17,13,13,13,15,14,10,14,11,16,11,16,10,13,15,10,16,12,9,15,16,15,17,17,14,14,10,15,12,16,33,35,27,29,24,37,24,35,33,29,33,34,25,25,25,33,34,25,26,35,26,34,29,35,25,33,28,24,32,42,30,33,29,31,30,34,31,27,27,33,35,26,30,27,38,36,39,27,35,36,36,24,32,30,33,35,35,26,28,31,25,34,34,29,31,32,38,29,41,39,37,38,32,36,30,27,30,28,32,39,35,30,29,32,30,26,31,28,30,34,29,23,33,1e+08,27,32,38,32,31,35
22,22,13,20,14,10,14,21,15,20,17,25,24,10,11,8,16,22,21,6,14,18,21,22,18,10,6,26,17,15,11,19,14,20,17,15,19,21,21,16,16,11,20,14,20,21,14,11,7,15,13,15,16,15,11,13,13,11,17,9,16,21,17,17,17,9,18,8,12,17,10,13,19,11,15,28,13,10,13,14,11,6,18,11,15,19,11,18,15,10,23,19,14,15,24,15,5,21,20,18,29,29,37,33,26,31,35,30,28,35,24,32,26,38,35,36,32,38,33,29,19,26,33,30,23,28,40,36,35,31,35,33,35,24,25,27,37,33,18,38,32,35,33,32,27,29,30,38,30,28,29,22,44,38,29,31,27,44,37,35,15,30,29,36,47,43,31,34,24,34,32,32,31,28,31,29,33,37,29,33,33,37,31,29,33,33,36,41,32,35,27,18,40,27,1e+08,29,34,35,24,32
16,12,15,16,19,16,16,11,12,12,17,16,18,18,11,18,14,23,11,17,11,9,14,14,14,22,15,10,6,22,16,14,23,18,12,18,9,17,19,19,13,20,20,14,19,17,18,22,12,20,18,13,26,20,18,23,11,20,13,20,14,15,19,25,22,14,14,21,26,18,16,23,19,19,14,17,17,19,19,24,17,18,15,27,19,25,21,19,11,17,24,18,22,17,15,21,11,18,14,23,46,33,30,33,34,42,32,36,48,31,45,30,27,26,22,30,38,39,41,41,28,45,34,37,30,32,34,34,41,36,37,42,31,36,35,38,37,39,34,33,39,27,40,45,41,41,38,30,40,38,43,31,32,35,35,47,40,27,37,28,27,46,27,28,31,29,40,35,31,42,42,40,44,46,37,31,37,32,43,40,55,35,28,38,35,36,39,27,35,41,44,30,27,32,29,1e+08,36,33,47,35
11,12,15,17,23,11,17,12,18,20,20,11,19,18,16,13,10,15,8,17,17,8,9,12,13,21,11,13,11,18,17,12,22,12,19,15,23,17,14,21,22,18,24,11,14,17,14,11,21,18,18,16,18,20,20,17,20,19,11,19,15,10,15,16,16,18,12,16,16,23,20,18,22,11,19,17,12,16,17,18,12,22,16,19,16,18,18,20,13,16,18,19,21,16,20,15,13,18,18,16,36,34,30,40,31,41,30,36,40,30,39,35,23,26,24,28,38,33,36,38,31,39,36,38,24,37,30,33,38,43,36,41,34,36,27,30,36,35,35,37,40,29,41,35,37,38,37,30,38,42,38,39,36,31,31,37,34,27,34,33,28,37,38,35,30,24,38,34,31,37,42,35,38,49,42,37,39,31,42,45,50,30,34,35,30,26,38,28,37,32,37,34,35,38,34,36,1e+08,34,40,38
12,9,20,16,15,20,22,19,11,20,18,13,14,9,20,23,7,10,8,20,19,13,13,17,19,12,21,18,12,19,20,8,16,11,8,13,13,16,16,13,14,22,16,12,16,9,21,22,20,13,20,21,17,14,24,12,16,13,21,22,18,12,12,14,21,18,13,15,17,19,20,16,10,16,22,12,8,17,21,12,21,23,12,14,19,10,20,11,14,18,14,15,22,12,21,22,23,19,17,9,30,30,42,34,40,29,40,32,33,44,24,34,20,34,38,38,23,38,27,32,21,25,33,26,26,28,38,39,27,29,33,28,44,24,41,46,34,32,20,40,27,36,30,30,33,33,29,41,31,28,34,18,38,51,32,33,25,45,34,48,30,28,27,35,41,37,28,37,29,34,31,31,28,34,29,37,33,42,31,29,31,35,36,31,49,30,43,39,35,25,32,28,52,32,35,33,34,1e+08,32,43
14,12,11,13,16,14,14,10,22,15,27,12,22,23,12,17,7,21,9,16,17,9,16,15,15,20,11,10,13,30,15,11,25,21,14,25,16,12,14,14,19,22,15,12,16,26,19,12,12,19,25,15,17,25,17,16,16,21,16,13,14,9,16,21,27,16,14,23,26,20,14,15,22,19,20,17,17,17,27,20,15,25,17,20,16,17,24,16,16,18,22,19,26,14,16,23,17,16,19,23,42,39,29,36,26,48,31,35,52,33,38,32,29,25,21,39,44,35,40,43,32,45,38,40,27,37,33,32,38,44,40,47,31,39,30,32,35,40,38,30,41,31,44,44,39,42,37,27,39,40,41,40,33,33,33,48,41,30,35,33,29,41,37,30,31,27,46,32,29,50,40,42,39,41,36,31,40,33,46,41,46,37,31,45,31,32,33,26,33,42,39,29,29,31,24,47,40,32,1e+08,34
12,10,16,14,18,15,13,19,14,18,16,11,15,18,13,14,10,13,12,16,15,13,18,13,11,14,15,15,8,13,15,9,13,15,16,16,21,11,18,13,11,15,10,12,17,11,16,14,16,15,18,19,15,16,20,9,21,12,11,19,16,15,17,7,12,19,11,15,14,18,21,23,10,16,18,18,16,16,16,11,18,14,14,14,14,12,18,13,12,16,13,12,18,18,14,15,19,17,12,15,38,39,37,34,34,37,36,36,33,38,31,36,27,36,27,43,32,34,30,37,27,31,36,36,23,37,38,41,33,39,32,33,38,30,32,39,33,34,25,40,38,33,37,30,34,39,34,43,39,34,36,28,39,37,32,37,33,34,37,34,26,35,31,35,38,31,29,32,30,32,30,34,38,37,37,40,36,43,37,36,39,34,35,35,37,29,42,34,30,39,35,27,39,35,32,35,38,43,34,1e+08
