1e+08,3.28721510306355,4.68088394338198,3.15592601653006,5.57968482532086,8.07171281461223,7.17154836818378,3.14131820891111,12.7425047683509,5.37377748983562,10.0715327436894,3.44161943399601,9.2875074541703,9.18632352186624,5.96156180351798,8.62531578351125,7.58692689944592,10.7977054020345,3.74875498400131,8.59481678192492,9.97383107667762,3.49932040065772,6.64708043105182,3.85230909675667,3.30348640260654,11.0957503324747,8.73282943476668,5.42398101685739,6.0365271151159,10.9769720615696,6.37823735206965,11.5063939411971,8.83551579147324,6.49580276453567,7.23292580525785,8.56542741749443,3.97165298238819,5.1616672130775,10.4803726209081,9.21529892616088,9.66952169458849,9.42152081859978,9.24376970820377,9.88286540749265,6.52459965331786,7.30341908089094,7.83694826849553,9.11469129886158,6.72808588645891,7.41255087872265,8.03518889212075,7.6621091260278,8.69593967884427,9.95844026983804,7.69425255658878,7.81633270950676,10.3126321844934,7.69597745439101,3.1250498422457,7.66102348617347,3.21041727845311,2.94296006405561,7.0586590019547,8.75426327475352,8.57423965173522,7.24822878387856,7.11772148667118,7.40215013232836,8.94561396979961,7.90557344560651,6.7448022927499,7.52740962911965,9.25374282604852,5.21081753020243,7.85934905861008,6.67667378964771,6.44768691799961,8.84020992150863,6.93892651210479,7.6595172181035,3.36146941326624,8.69091690046623,7.14665672086498,8.08533933711769,7.31743397281034,9.50858699927679,8.07645507369391,8.25248048673668,4.32386700438214,7.67344340640239,11.6350312648287,9.07972533013412,9.49781936149948,9.11205492364048,6.58114598304474,8.46387164475704,4.87809973517944,2.82384292699059,7.11102220079528,8.1467486994029,9.63274065241053,9.72757926689024,4.52940313055245,8.52768466425352,7.05173907709074,9.08525121573091,4.21557125110067,8.85043559404173,9.27658961144949,5.28422544495951,11.6261495421869,11.5386280399911,11.2427095630366,4.86041977425288,10.8454421919375,4.39440214626728,9.52744633790953,7.9921123634634,11.2005351658409,11.7867881513837,13.2172683092306,10.039915713656,9.08478212897733,9.21848013690365,12.8693883057366,12.4526807014586,3.62038997025659,7.46769374096275,11.5247634280894,8.93461441397501,8.44645143292706,9.83184282451926,5.38094354088777,11.0230338670309,10.4212099169516,5.20180579206724,9.11926373671954,8.31618165059243,13.0848675232884,4.73884803268654,9.0852013634148,8.60237751761701,10.574715384496,9.22061198108016,9.46465103515018,9.22768763253331,9.96855212666747,4.22553274111153,8.8686614850187,12.8506433351641,9.13203048620097,13.2275345822316,5.98562586255767,5.01440346570595,12.7477545294335,8.97822761143114,9.14202979387049,5.05463369311533,11.0265855565065,6.03891652889678,12.4848141119336,9.80166660277858,10.5382375572195,6.84428582311585,7.91798179491466,5.9739368106888,9.86713480746183,8.47099542136841,10.7152952593665,9.28854296729526,9.5400031946528,9.60158890431578,9.52873212205533,9.78207965659452,8.47587311815531,7.83402601384106,9.06309415353322,4.900496949934,9.35571907708998,9.44481154151278,9.10215107535869,5.22338214284147,10.9548561814781,9.18764591753528,7.44366992287148,6.14509734775903,8.05233885602379,4.33107868816083,7.05863627775799,9.01551266579454,9.33864391484789,12.7554266188086,6.21231498209283,10.406423186075,4.78454192976991,9.47364130121928,10.0596044835604,7.64319032795763,11.7560630845136,6.08027241321698
3.28721510306355,1e+08,3.75954090588513,4.71159169233874,5.53126233753953,7.32503665585611,7.60264837334107,3.97478619308317,13.4027877843571,4.97022666132055,10.2395572444349,3.28012478996841,9.92088303461095,9.11135765936026,5.12163183894373,9.32282394351964,7.8539467097068,11.0196892436021,2.85270544709335,8.87419046439632,10.0948203211394,5.23034245443277,7.24586791224675,3.36273794824026,4.54968811376993,11.2752497530978,8.58461836672454,5.44135396896085,5.7509403522563,11.4203268886531,6.48287773717143,11.3962399817072,8.28598361513803,6.51536736042011,7.33232134724392,8.32798904861952,3.80621335581091,4.08979188606512,10.3153152979624,8.81720432157822,9.30609882498967,9.25547973094697,8.64122419814577,9.86911528148757,6.70421207560453,7.02790667379104,7.8800180450015,9.50875281960738,6.23876380861322,7.26471608057006,7.66219734042556,7.76396455255227,8.50131650145461,9.75440368146743,7.67088573820838,7.30021246408066,10.3625022356391,7.10287561654944,3.63337871876493,7.62065148170698,3.02118736308262,3.70893216623178,7.1511303952922,8.20437399002475,8.18166483290603,6.58332768976582,6.74576353754064,7.23274623246168,8.43950055295106,7.74074122638515,6.23408842240548,7.53994817593133,8.68690391830343,5.08787827301048,7.41477355758482,6.52360802284178,6.4385560347665,8.59372755706356,6.61270062217413,7.14613131180486,3.37370551240754,8.08442931967508,7.11026867315895,7.69574415623173,7.34117031920805,9.02462932091446,7.82850505043112,7.59270646748836,4.9083009234245,7.56329510495297,11.6947646784391,8.62938927903122,9.28194436361091,8.63761001178637,6.61264804076507,8.26801057023126,5.20661166404541,3.53619387131334,6.9267345656974,8.44940398222881,9.40156704426334,9.74565332201963,4.71661175963266,8.18899321753631,5.89449297853539,9.116705042559,4.7361951447676,8.85571914490791,9.17263436784063,5.24825954894719,11.905609787025,11.3860963602692,11.4313954679488,5.76896125294852,11.0977795652771,4.41102710136054,9.31449583908847,8.06914812472296,11.4702338624055,11.4697861499201,14.3822349340261,9.83899050964963,9.14454485001214,9.11090612702984,12.5526639377985,12.2539689741947,4.10504736639596,7.62764646680423,11.7128985660799,8.8588557352973,8.33770356331067,9.97598725043718,5.39692864792165,11.0333036038383,10.2055348985994,5.82275783813323,9.19231458296503,8.43263147051605,14.1774630677187,4.86955747776907,8.86691618203011,9.14723977516879,10.8876108124848,9.22361677379975,9.65211992698438,9.22396646645771,10.0529576916823,4.8939973735107,8.71459660351583,12.6549956975497,8.84088355513184,13.7989963820487,6.11591172200313,4.88995597911645,12.6414544010975,9.02570766212641,8.79698465467243,5.27134865619159,10.8922857713033,5.57847987028058,13.3616622355807,9.97410221103972,10.5141817070597,5.45910968905894,7.48208397293636,5.49063814604006,9.97304951193068,8.55325193274629,10.4690117797898,9.36408765624007,9.320952424765,9.43706371698843,9.67474261380001,9.53169904409853,8.32522367778903,7.31666861240734,8.9380437190189,5.20380685035142,9.26751008183739,9.31496985292879,8.8030663401316,5.39344289429803,10.881808039517,9.09739619602859,7.28398072032258,6.0682705814508,8.17429098249645,4.42089914478146,6.56563117009118,8.89127452191676,9.25940869653694,13.5957684282463,6.17243585161345,10.2529528525677,5.03488289719128,9.27313370767068,9.88301983758511,7.13408855895106,12.0007510429231,6.20753167840445
4.68088394338198,3.75954090588513,1e+08,4.38264593235856,6.1427859197688,6.11103411709851,7.55744013510045,2.93718180675219,13.6293561945296,3.75633351118369,10.9371473378858,4.25587626290935,11.0203315714812,9.33330565868663,2.14531049470314,9.81705878162342,10.0824766361801,11.4670231442151,3.35881997544319,8.68219496351739,10.8595628131047,6.28479611249227,8.62217657051986,3.87604160271422,5.48128640949228,11.2953665944896,9.16853384707005,4.34807302272333,8.20517511071787,12.0379352674863,7.78292783906364,11.8346323677382,9.14754135482644,8.02643664694885,8.76214200837844,9.16945050947802,4.96888218600778,6.21114088417637,11.5979288512015,9.94442747376209,9.81831897305473,10.5593919982475,9.61766208409989,11.2780546827606,8.07321079263242,8.60289798318647,9.08568150247942,10.1747604796357,6.83743336652069,8.78164807180915,8.71076019816536,8.72780114630923,9.49235407268456,10.6089179062258,8.68159605482492,8.68991467760123,10.9306551843574,7.84870599488623,4.71046751652411,8.62566569065736,4.47263996443457,5.26298026067926,8.31775078456603,9.49690051360187,9.28344698957444,6.93276859175409,7.73672378712599,7.81273824612672,9.21587093934275,8.48576562429924,6.87749824159868,8.59699437708268,9.59765021869946,3.75660896565296,8.53556588967564,8.34606656763737,7.82718747099453,9.52457567738248,7.4628544042353,7.71495297436218,5.75032004042381,9.06749750550702,8.58781463371195,9.26788733461786,8.26922663471355,9.77733350655295,9.19489565816244,8.50617301515081,5.95805974974943,8.85582049671398,12.3616057489373,9.31409832744796,10.2566071763979,9.35708291749903,8.3672770155847,9.56426113202769,6.49376066740988,4.10019048839728,8.34532592024024,9.92616513594836,10.2120097024886,10.6318264108564,4.13228429168739,9.13851339069489,4.41605429553244,10.1541845418874,5.47286335889636,9.84467488149853,9.70558224820621,4.62691120684347,12.437168757299,12.3870972448865,13.5923123767961,4.99015481151818,8.8735323695796,5.29331993749412,10.7236981351163,9.410809122102,12.6648657297082,11.7953023446177,14.6132533495519,10.65580621349,10.5189197964879,10.1366515906115,12.716135316037,13.1012625022526,4.8939198836625,8.63183973111652,11.7623682590449,10.2428807584769,9.70029624275704,10.9499058915262,4.6051414848212,11.3090281259272,10.8825594543124,6.25000658375146,10.6598250143917,9.45704035326348,14.5022786490805,4.49850657788011,9.80760427508386,10.8586331819793,11.7359876051617,10.0524794951688,10.5592186975281,10.2173324807369,10.9350027643522,5.76566219728723,9.50176342238948,12.8547743523227,9.48487669822064,13.5751263614272,6.8388096085937,4.0571424564463,13.8599626520322,9.62980557821133,9.75379600192117,4.28419594850551,12.4823220450249,4.82908610412048,13.6382902629522,11.0552212745256,12.0104465309906,4.69359799975375,6.20782738603089,4.73383051269195,11.0616031945329,9.81091288014196,11.3469279633592,10.1989551771684,9.83600395841411,10.3389434676051,10.2972433400229,9.7298651028067,9.83647643472273,7.70413851840914,9.70418323546784,6.61975915273106,10.2257881706908,10.3904467081172,9.44982495418086,6.50623982552621,11.9643266725916,10.0922727595383,5.67261015270187,7.47565353047614,8.81218121423744,4.17473683817567,7.79553397125024,10.2325409237653,9.95890153183352,13.6894283182314,4.9644222665539,11.1807077050636,5.59147107570704,9.7579966107247,10.3273035245927,5.78354720018123,12.6748008525336,7.13359263846692
3.15592601653006,4.71159169233874,4.38264593235856,1e+08,5.66630325570313,6.73215586906175,7.21809154982617,2.1232779273979,12.2706057543857,4.55763033740342,10.0532016632177,3.23860789084935,9.71251023360131,8.92817720910498,5.0654637389737,8.48874580656871,9.01252844178967,10.8304820216558,3.50571628375719,8.12046615222504,10.3904194672164,3.08515903967328,7.55965045001386,3.13014161804134,3.27084170401605,10.8849427404741,8.57158528400271,3.9533856909741,7.32413860745432,10.8993500583665,7.06099832670958,11.7404635779319,9.01663315623795,7.23600341573797,8.03743038292068,8.64639601932859,5.20284170817186,6.05184899907705,11.0134383026762,9.89333509091797,9.62904466477095,10.0477063616758,9.5141177170271,10.3216630121584,7.17978056051335,8.2339979772669,8.40216246844181,9.31434371446893,6.74770885426587,8.13480063875138,8.73957528469516,8.22181447600754,8.98862503380508,10.0389446208078,8.26863420631056,8.75619031128534,10.4081838260989,7.84076344950805,4.02946480756384,8.22783929062146,4.68695234459138,2.9605487639786,7.54991306723758,9.46905892787056,9.2163722992284,7.27838766244818,7.22418583915627,7.45043932311053,9.07053118665036,8.00988012590548,6.79257714455033,8.10935495223098,9.48035981872599,4.13417072993835,8.60235335436433,7.68627070347822,7.08896127893814,8.90404017008198,6.96797918023273,7.69482731618838,4.81959182215493,8.95399753673387,7.93460785378445,8.83369433506227,7.56571356501307,9.63274174181273,8.81602987772875,8.51983100407838,4.99739294487759,8.1072228981282,12.0543461787934,9.14784253408981,9.66965812030276,9.21328265376853,7.56551825435465,9.21078168439182,5.75763663490856,2.2003002772013,7.74189500728385,8.89903329637253,10.0818081590291,10.1234467354488,4.05504711430754,8.96855751054212,6.49065143499286,9.64661138601008,4.76240867458752,9.3276617283358,9.50601268854389,4.73674408908622,11.4603617257624,11.9401160836254,12.4035548199389,3.84395790569381,9.41428434228749,5.19474962053327,10.2010210626253,8.6643909836597,11.4606349959898,11.7659475676807,13.0609437270172,10.3870593790677,9.72203709708269,9.7429016649093,12.7249434024882,12.706795558124,3.90767306554135,7.9790516920178,11.2957604524239,9.60841377099269,9.17617435821427,10.2655106648913,4.68872766433739,10.9468403361611,10.6824932368692,5.46128591876534,9.81845045606467,8.74360688836316,12.9096327422414,4.36617188594671,9.56320205958974,9.57479483031712,10.7127975130482,9.62337374269447,9.98481035683735,9.68463199293514,10.4036602124601,4.70334652433014,9.26903365176417,12.8319576561082,9.44394049982728,12.8890792490879,5.94220761886611,4.47989932702825,13.1548295079506,9.20353987665511,9.58797708647502,4.08985202617641,11.6847645225266,5.53697103070898,12.6214639983078,10.3361627962358,11.3354551165082,6.84515060696944,6.69981431779416,4.90994246313393,10.4088075870058,9.13374638169495,11.060117063259,9.65425293372961,9.81054059312326,10.0332476805959,9.73185486255576,9.8081705155745,9.29025208396965,7.79493141236318,9.44168399197707,5.75128638161015,9.89756238831779,9.99032145498819,9.41620928245981,5.92002005837311,11.3670376896357,9.79031035831822,6.01146654071034,6.81286056224112,8.22264470287322,3.97829255228319,7.81011326232971,9.68402458899972,9.52018270595607,12.8039766776014,5.10558235903946,10.8729633632051,4.3034037974473,9.68545935375721,10.137143209152,6.37795429436408,11.7520877096211,6.81613817103782
5.57968482532086,5.53126233753953,6.1427859197688,5.66630325570313,1e+08,8.89826510715226,4.49097197917406,6.05089259041386,10.2248297799157,4.94496375861972,8.06182785724389,6.26311196682432,7.75946705693303,5.57576478168443,6.00035914243015,6.35054740453211,9.04485553770208,8.59567990758038,6.30658350261617,5.29028709640725,9.32945411325945,6.30848445463865,4.70669210465103,6.2602723967962,4.15672326608529,9.27500064104664,5.40554610910228,7.119007289795,7.08847537855504,8.59831613457016,3.14712152636711,9.37818260367748,4.68741592837635,4.11336964984714,4.27878503586756,4.58594915596351,4.17300859837772,3.47120707826001,10.4648443019968,5.61138856388208,5.48621963387014,5.92659469980041,5.36861921714636,9.29603403413074,3.69751754187962,3.95343052740634,4.23879349647166,7.6945271790192,2.20279906064477,4.6409322689578,4.22999363716048,4.08515802873339,4.79864505668304,5.95494773014022,4.01056145963857,4.51986109619484,8.08783406429859,3.25650075668776,4.66121526201202,4.00412349800233,5.00035198214498,6.25350754544989,3.91995037156848,5.04164653090406,4.79253378910819,2.40848791332455,2.79079781522243,2.65747311632463,4.72941334774257,3.84015526720673,2.25297293384887,3.94615374301725,5.34722744721575,5.15781527288237,4.19930410599459,4.34343487059378,3.51705184204035,6.03836519830475,2.60085402989679,3.10376827347175,4.52034761896603,4.73217318837133,4.07704590531502,4.6641739548439,3.78379422117753,5.53045789760639,4.52968032320128,4.29505418760552,3.61966829362184,4.77061837911823,10.0136506856526,4.94790006142648,5.76288622066354,5.82932214063084,4.38797100161176,4.70126096355738,2.98655938641352,6.07279585987811,4.35962275373134,5.59075979444202,6.79479215462848,7.08741846307351,6.31501455905957,5.83775042081194,7.78801763351293,6.56590899688416,4.92101752280349,6.24677182432623,5.7025041034262,6.48763997303647,8.67541011425841,10.5575683481642,12.191695596552,6.55565112975595,9.96937106147993,5.01452428775659,6.840698669518,5.6948643984335,9.15265227313809,9.23819263618956,13.6414833816919,6.85622591030703,6.99102835610145,6.32321579553913,11.2109058685668,10.9480803272607,4.75761351291346,5.37227651106813,8.27467057705185,6.41122697395177,6.12505816252942,7.29469070070485,7.07082030846824,8.28931429998639,9.37492193072437,4.27510937023703,7.12284913572057,5.52054308184661,12.9540300594461,5.08249858531749,6.38837131119493,8.45539696827503,7.9095811699491,6.26112080556689,6.64833434203086,6.6474072831103,7.31357852061164,5.15246550905669,6.06797029601868,10.5631919112167,6.11584083843399,12.4715855790124,7.16959651709158,6.18530569300129,11.665193466795,5.45314125386452,6.01066319692542,6.85196431316014,10.2254482882676,7.4411748186068,13.2802642588635,7.32726303543758,8.51997219561102,5.87527453050259,9.42028491881903,6.99271145858863,7.14840042889765,6.55533185334703,7.78144814346393,6.4310553824536,6.57628250102552,6.65871997631529,6.45517039324297,6.27458155251629,6.1868104995926,4.52195087468269,5.92337918627606,4.46225806725822,6.58642024021326,6.60679835540257,5.93244889508634,3.74546399174103,9.68693645794855,6.72951274053268,8.0017696688321,3.99255421520702,4.21119487150321,6.05377682233663,4.81105606877909,6.58084442857591,6.39813134398855,13.2904619822502,6.87427818397092,7.79358144681046,5.55771784851885,6.08114991217226,6.51389213569055,8.35935597231621,9.0074939769676,5.02796975122515
8.07171281461223,7.32503665585611,6.11103411709851,6.73215586906175,8.89826510715226,1e+08,10.9462579073666,6.75102054502478,14.2835621474725,7.07939813415393,13.3736186769313,5.63954024377177,13.6212388391963,11.0836982913847,6.04129733145736,12.1936441983427,12.4852374284732,14.1374124603199,5.47186395504267,10.3006098369533,13.4823544031459,7.25411105314166,12.0285326967579,5.65475348194981,8.1655917632786,12.9095894717168,11.3047722539443,4.85817479083313,10.7355238550058,13.737421822721,10.1346358068899,14.2769350380246,10.3796639478784,10.3877100859117,11.1321160362627,11.0613307471294,7.74061197437011,8.19030794145927,13.42426580714,11.358896717353,10.6937207226243,12.4862507422103,10.5567639549943,13.6603743871227,10.6388841996554,10.7103552878276,10.9783138133514,12.8914565706211,8.79343263218331,11.2888950194187,11.0053952524694,11.0083828587332,10.9511127635986,12.1220865339,10.9489488015672,10.4854948684653,13.4309661404772,9.3146650863555,7.77099598661848,10.8571759292546,6.962772001731,7.19941475189893,10.4609811493069,11.0849492342644,10.9907667892303,8.93173741552554,9.3399723170322,9.67393526046212,10.4277801953557,10.3858725160977,8.85175150585536,10.9211434717453,10.524111092926,5.7591145559758,10.8797242175126,10.9757115701446,10.2602426443196,11.6487735288848,9.01329989549954,9.20750430128092,8.5320923842561,10.2520975910854,11.0024147012454,11.2869738549684,10.4097461445389,10.6218357946989,11.0839991637985,9.63743542988423,9.03670177762768,11.1851922871438,14.7207392185775,10.3693374780211,11.7536728992967,11.5372727791662,11.0250064161209,11.5386800736089,8.72728495694163,7.17811918083561,10.4814143364616,12.1250434334307,12.1875830140801,12.7627390644094,7.15515447453723,11.7076695924832,6.69748282586822,12.4070738877601,8.72259303928654,12.5367891330167,11.8558850493405,6.13378741524926,13.681448725165,14.406967302963,15.0143873534052,6.92855988326323,7.38248064734019,7.84912687890445,12.9404497417657,12.2717206328056,14.4757023347729,13.9644535248456,15.0141972691035,12.6831299622744,12.7893683625523,12.3777153752607,13.9487464268228,14.9004765657723,7.56476792362007,11.3623007751068,13.784341371131,12.5395484595014,12.174644558183,13.1002957685911,5.59589988977736,12.8573037023033,13.5059727185917,8.27779850440984,12.9812576887297,12.1264275596643,15.077240605328,6.6991378520271,11.794221758245,13.1544955289756,13.8287696777462,12.4487581001118,12.8054073540517,12.4386755064988,12.9045317510182,8.69780462942214,11.9299325555991,14.8430821291613,11.2643357275241,14.110437426132,7.5783616562713,6.25382050710964,15.0412312754357,11.7707871201201,11.812466571435,5.78028373527005,14.6499288210758,5.4011984324663,14.5711558336048,13.3067626095485,14.0817605023068,8.16873695895517,3.88775271217687,5.64634139122495,13.2648677391634,12.3610160624412,12.7888390949165,12.3637463865073,11.4928069965261,12.3794454081867,12.7479678585699,11.4340129729729,12.3395035130698,9.60037788008594,12.1754278496175,8.87779973206335,12.3395270748345,12.331830110406,11.2831386980059,9.73159864894151,14.1192829051495,12.2569338625704,4.77407065008176,10.4667406150513,11.1455146879397,6.61718461053077,10.481271111689,12.4589598620884,12.404972211306,14.7200215924076,5.57621333911665,12.8243559486414,7.49005914661557,11.8064940432297,12.0476049596206,4.45972610334063,14.4026872616754,9.14363517295132
7.17154836818378,7.60264837334107,7.55744013510045,7.21809154982617,4.49097197917406,10.9462579073666,1e+08,6.99060608753121,9.28068132617722,5.16293419658063,6.88306682202072,8.54179811161979,6.29339717121979,7.29314739679358,6.89405340107675,5.35198724862109,8.00714214231885,7.20545553106364,8.19738368769822,6.43862158724578,6.9052839308988,8.43369777305856,4.67098939762403,8.5844210536315,6.31973371287009,7.51513976686799,6.51791849927535,8.30859666372191,6.98738977454414,7.73703993291812,4.47262411707093,7.70949686778591,6.63306681174558,4.38453609318062,4.74780437430511,6.49984472949903,6.86583079080815,6.42256278724585,8.68124668692227,7.46929450294908,7.10327839703643,6.90561305947758,7.39161251591228,7.49304024304017,3.86082890970152,5.82349180786948,5.76662936738787,5.5267825063968,5.33505061054995,4.88267416595964,5.1620291536708,4.66956602293705,5.98360605187453,6.85315974724356,4.89749600179322,7.17197960797181,6.16893012391507,6.58235535937544,6.11253842902996,4.9361976669879,7.78064293027819,8.09323403221755,4.24220388862576,7.10613518546892,6.63357803574367,5.5265451511366,6.27202599021872,5.55703031656078,6.60492478348058,4.79451794616542,5.35372456772375,4.66822766637338,7.31521364435913,7.92607758125667,4.96308706935301,4.95960008793239,4.20065063752551,6.76855462604737,6.06821831015596,6.47984408746187,6.28770217095158,6.75763482981635,4.75747359409471,6.08407009999193,4.11541929046893,7.36269068227064,5.9308731276655,7.38199666175732,4.36192525976758,5.55057606668471,8.15476451100578,6.72397025399781,6.68426549045475,6.68598562651676,4.59703027107157,6.07067710033914,5.17493601569825,7.65824068218296,4.91004381013561,5.34251458015415,8.1929387733977,7.55667085868125,7.1847128823507,7.32391723956266,8.56476303376356,7.42312405420671,6.04099264218484,6.81891936672955,7.2685911886178,8.85659342733556,9.09235895363619,8.70316353989118,11.1667464505139,7.54187960569536,11.3218060010333,7.20145687086213,7.62821396627331,5.7063591324172,8.08032136011373,8.0893231035502,12.0761080133666,8.0742819949459,7.1448045407552,7.48077297253158,10.1644582114978,9.39959412423902,6.79118736621511,5.68123912276047,8.34475194099188,7.32974290095187,6.95527181904076,7.63161369358935,9.25438745407566,9.09522087954527,7.34054356495279,6.98830810421428,7.23625113222026,6.08630841658799,11.2948775856183,7.55715484434398,7.97621762044924,7.03947139399808,7.47321907645224,7.3117273023517,7.32876830322942,7.43272762725967,8.12245998154159,6.42244517309462,7.25939907071088,9.00290606845566,8.21774406867213,10.9238697446511,9.93207790473884,8.30839895477865,10.1594674432917,7.01504441574603,7.71810592192447,8.54785900546096,8.62172388955892,9.83328241519426,11.0596132522501,7.63891874395313,8.50447254766955,7.36517254144232,11.2085166297858,8.73057053725782,7.57749246174414,6.51566674874506,9.45538077699963,7.41878216576694,8.6662709775433,7.84202450795482,7.12389900753086,8.35386767771735,6.8700777296977,7.27508713436539,7.13449298884259,6.6224407619157,7.69974151419976,8.17552748836878,8.04630057194014,5.62591764251467,7.83184852505946,7.79750030148868,10.0367920083786,5.63324171567464,5.98433639336101,7.7597202571615,6.66166413773886,7.41036619324309,7.58654466017333,10.9952933099713,9.06655430736448,9.16251150914915,7.84537609559803,7.76016196427899,8.27611445264853,10.81933820665,8.50212215570249,7.30037976211924
3.14131820891111,3.97478619308317,2.93718180675219,2.1232779273979,6.05089259041386,6.75102054502478,6.99060608753121,1e+08,12.9849251965107,3.85797885969604,10.3344424442758,3.41734302395453,9.98783877499923,9.53430748150645,3.92493603662875,9.00555116190786,8.61510984639161,11.0080020380349,2.88948747094017,8.68808716605361,9.96571797153985,4.61723725189709,7.86511583411689,3.15010058781229,3.97537721268608,10.9687624532666,9.00499998746152,3.68769822889974,6.90742346031703,11.4391139678651,7.32272816720989,11.6240228003068,9.36661268834985,7.31281524947003,8.27597209572136,9.2613788190716,5.14302337471116,6.1623594464476,10.6343243320988,10.234984128887,10.0977131344781,10.4793150619161,9.93886383853677,10.2006929257988,7.33825380356681,8.55341429678023,8.77907343491988,9.27012928345204,7.01742139449437,8.19273669810245,8.78319196744565,8.40779178307036,9.45001221636471,10.5732360659222,8.42959673770517,9.06655270585539,10.4182867000451,8.33916019349447,3.69169727699345,8.38659755263914,4.7062941292465,3.71671834472352,7.75440190648077,9.74657426370933,9.46425953509287,7.51611394428503,7.75730109935666,8.03738963788143,9.43358996735507,8.24887777618081,7.0470311160451,8.26549911998636,9.90982458181332,4.56747892289819,8.60294638112308,7.72152140400443,7.21963089717308,9.20471582734041,7.51002905486153,8.21971549041868,4.95974575884838,9.2994094181841,8.11830323805953,9.15675504885716,7.77690250924182,10.0937121476838,9.12506245906433,9.06892604562941,4.87979577738291,8.39056828671202,11.888339769577,9.54958665202794,10.1852907912551,9.46837468719526,7.63021523095422,9.52990016818029,6.14295650740494,2.35594907494465,7.80676170840552,9.33480222013606,10.361720288032,10.4250433930544,3.2271990512293,9.16866074084035,5.26959384461013,9.96865911768597,4.47546555482603,9.57193706880966,9.91655677849702,4.88483750617386,12.1662080518642,11.6400562923248,12.3008235664313,3.97758583495358,9.58190959242787,5.07143987548313,10.4878242934537,8.80458878073227,11.8440158978491,11.6875685453232,13.4340495090706,10.7426368650833,9.97369488922411,10.0639720412917,12.6242316309501,12.5844989200305,4.11900992253214,8.07426530946468,11.7823990230226,9.94195490162694,9.37889707495452,10.6467611060191,4.74549231160939,11.3825499562119,10.2100903529116,6.07041137098809,10.084640436364,9.06583301251294,13.3484673500291,4.67024329788747,9.89023207959523,9.47899643858095,11.1914005985242,9.9392704387504,10.382715860689,9.98396657114207,10.8063223110596,4.61233204774217,9.50795214708076,12.6936535404086,9.84130283374968,13.0591339822795,6.62328169513726,4.33115386325822,13.0827601640278,9.68623941406158,9.90348529960935,4.07079560425971,11.5098220522508,5.46538958728291,12.5058817790561,10.724962909765,11.5725332887442,5.9874230381864,6.63913326898728,4.89132247580507,10.78575850448,9.22183990180388,11.6029035673749,10.0652499445907,10.2378649781055,10.3831139466262,10.1419708248505,10.2668958531328,9.47620646297897,8.15189666496555,9.72449416777193,6.06640857695367,10.1990992698352,10.4314628992265,9.78670440153284,6.01937216472397,11.1555987988245,10.0351230729314,6.29853688881116,7.02796916964134,8.84418757382455,3.6503771064571,7.82243664378358,9.9592786715633,9.91449188372903,12.693554316425,5.41612561758152,11.3089165480831,4.93055350903468,10.0674069940179,10.6538969197936,6.59948039414799,12.2541838249873,7.16596622654846
12.7425047683509,13.4027877843571,13.6293561945296,12.2706057543857,10.2248297799157,14.2835621474725,9.28068132617722,12.9849251965107,1e+08,11.0806568774714,5.44797937770661,13.5358656808858,6.34940519055424,7.08027292422673,12.618914053865,5.40342964851226,12.1341772524369,5.34444536495406,13.6343842347329,6.8088074701714,8.47451644341516,12.2464563254417,9.41167418135484,13.735022873285,11.3648554151556,4.93063613181065,7.34045019687027,13.0093899229242,12.3436415619742,3.91421743997881,10.1722252390655,6.20903715114692,9.6997840451912,9.85663240069022,9.14325991335463,7.57419987811932,12.540337185908,11.7468500712945,9.80580278995426,9.490347681389,8.96755874457591,7.44594662117247,9.54680057633605,8.56245597102868,9.8062025077994,9.47745784959827,9.34415173019518,6.78698580130531,10.1444440834957,9.95092497682023,9.51912023865534,8.98874782898327,8.63744269918449,6.99962785529262,9.35257652183014,10.0569908260969,5.92193523785612,10.0346465206961,11.8686010991381,9.32558041584558,12.6931936757359,12.8286021823559,9.3663190413935,10.0382763845925,9.69626114149843,10.0951783011751,10.4677869824345,9.36737634277039,9.60270731223933,9.3944653512256,10.2192265712886,9.32434669006494,9.42689087786399,12.3273289567645,9.49253122832098,10.4172780100408,9.91650217093518,7.5123683440044,10.0949196285264,9.96461273966545,11.7116021977748,9.69807995434009,9.60606006055205,9.48693250133626,9.08729384052119,9.17995001535781,9.2389557851092,9.96682636557572,11.0331175859936,8.37688744802437,6.64456201054004,9.23607021137002,6.91506861566411,7.28126256084319,10.019333687438,9.37070037777026,10.2492517569082,13.0098200652211,10.0553173392677,8.23764426918103,10.6063896434972,9.56042528965347,13.3531509218376,10.5476330080358,14.1002751435663,10.3097381204579,12.580019368622,9.62239934228214,9.77397438725936,13.8016939346089,6.30380567687141,9.42476383846229,12.3152089825373,12.8465835725853,12.5260298651516,13.3460192902078,9.96989368655214,9.84880954774419,6.60465263710905,7.93526738153267,10.0820123863326,9.70663184566925,9.7480085563914,10.2348945463337,9.06532726469017,8.43639765533186,12.9626283899591,10.488665365079,6.65814064141231,10.254581951687,10.6666714395815,9.35918978522631,14.2120986091775,8.33526529926059,9.76218432096973,11.9659875645399,9.73112838910242,9.51305678427922,8.94212017027422,13.0454994892406,10.9140564162235,10.5299637791199,6.4336151212381,9.79060536485728,9.66956951585527,9.92288328347787,9.7683270571282,12.6865467597002,10.5631616645529,7.37675159579165,11.0305375999039,9.18918525085862,13.7814248216387,13.8139439253615,9.07436841321587,9.78444711157173,10.5569065570579,13.665732818821,9.70748075254818,14.5494387382147,10.9195705224594,9.61171869755002,9.99526679618531,13.1216709012981,14.7527599456447,13.543656805097,9.40618811962911,10.2125901962695,10.1327692338555,9.93369405309775,10.9848831593302,10.023311063336,8.60766072422681,10.2887942359875,10.6358814655746,11.256424124259,9.81896173888005,12.4418768551459,10.3186324724364,10.4008858813627,11.0201352606631,12.0269806070245,8.8258965521434,10.7555597063994,13.6796662416031,11.354773609614,9.54312466688504,13.5798734939935,11.9088205540299,10.2542000882125,8.92102412522795,10.5933648131978,13.4233267005225,10.3990145692903,12.7475766798346,10.1406316662961,9.73780372351269,14.3537419707531,5.77789682824969,12.1811945721311
5.37377748983562,4.97022666132055,3.75633351118369,4.55763033740342,4.94496375861972,7.07939813415393,5.16293419658063,3.85797885969604,11.0806568774714,1e+08,8.64477578433466,5.54289717770341,8.76542576674193,7.74728527568455,2.61201777734133,7.3594445119841,9.0874427403978,9.2141959703019,4.80838139349092,6.87074967241415,8.71027618574892,6.47511831893033,7.1437157939192,5.45364886267739,4.68913967790298,8.39965043693622,7.31923080160087,4.61791106630428,7.36113988021758,9.82338643333987,6.45917150909251,9.86499994566724,8.35358597011917,6.70752556757296,7.4821523269504,7.62964627202146,5.93770744993849,5.80529210925788,9.93013894211724,9.35047989339723,8.90988746580922,9.21377455377957,8.9207702347924,9.23565903631117,6.58704411814274,7.75455727989586,8.1652395789703,7.7156106266597,6.02876170188667,7.60246516509193,7.71639692575882,7.54946663416134,8.33920331424356,9.05061309566308,7.60519586572751,8.32154494929583,8.66124957408992,7.22118235090842,3.91559257332415,7.56730553599648,5.37962326103578,5.8335825855012,6.9031460229998,8.9340030176568,8.62940334138237,6.11192594099802,7.11000718984392,6.74308398613504,8.38452584741214,7.25355658689232,6.08216948840261,7.4515325506931,8.8702339043569,4.74348479539839,7.48526612015117,7.2406796994458,6.50465156811989,7.7412298694396,6.7836199472941,7.03984428765585,4.89317472794645,8.33449550881138,7.37798958692602,8.33180329676476,6.85415607183983,8.98789214231909,8.26411053419433,7.98422303968642,4.50578477049644,7.09309451906326,10.4241009858431,8.45665099231317,8.74111983127122,7.56813619028533,7.10800813055643,8.6321872775951,5.30362134312947,5.01637580593981,7.18332069496836,8.41275232818094,9.69692392438778,9.53851431544211,4.15611547417051,8.57371812134338,5.0018423452594,9.3521083195298,5.04270586251068,8.78576801828745,8.87101891810221,5.70994437813661,10.440239364311,10.2977074698807,12.6241616519243,4.47317263420996,8.74239516927639,5.94359440183076,9.7111716510642,8.05656968995787,10.2198609052079,9.68250420338476,12.9006643881373,9.82449866555638,9.24916627774978,9.40149537550131,10.7539596362044,10.9598365401868,5.0412747709741,7.5497802063254,9.90301546422067,9.36072461409054,8.94096692844624,9.78573310046466,5.94196385779218,9.92237928322364,8.85392756187837,6.03529648992352,9.37831349051254,8.21292606680016,12.4536562542772,5.05051637607193,9.3588942732814,9.29518771418469,9.53229850590051,9.15565841870983,9.62452088251494,9.27726689222748,10.0729688441157,5.50213458869908,8.93105117930307,10.6502458408854,9.19818627395373,11.4519339998427,7.78417586591501,5.2055672217265,11.6491324187017,8.77168737872414,9.15206988811751,5.02815410725398,10.6082707950794,6.45923503235697,11.8424676703023,10.0056790583474,10.9304885317447,5.07644117849824,7.33760621470678,5.14027062064128,9.9598860994593,8.63994073512529,10.7563880457382,9.32881958514807,9.61734610370475,9.53879822971905,9.01141136911894,9.24630419619262,8.9727442498441,7.34436651042743,8.85977176112955,6.56631359076394,9.51137783920488,9.78042184443739,9.15516499981143,6.30466531426716,9.61978138040504,9.56414840674783,6.30933097317586,6.87574009960694,7.60475812037536,4.82455016920531,7.66324217865818,9.32334503852726,8.83956013489149,11.8454021840132,5.62420028119638,10.6127671933904,5.61417312648561,9.16650826067132,9.58862619951274,7.07778484514575,10.4314974541694,7.02020756536799
10.0715327436894,10.2395572444349,10.9371473378858,10.0532016632177,8.06182785724389,13.3736186769313,6.88306682202072,10.3344424442758,5.44797937770661,8.64477578433466,1e+08,11.0964864031484,2.92468418448946,5.85488655455353,10.2940189421028,2.80655192539275,9.09240304347997,1.84986246961373,10.9984911837524,5.88435496087141,5.26675220364844,10.4268796649424,6.60303464076958,11.1231523803569,9.04605377183163,4.42661698857343,4.92805858145292,11.1825128334017,9.1105322341132,2.77314381372796,8.14869936408426,3.32970498821159,8.45917618648739,7.49927406739352,7.10921121562284,5.7163434825376,10.2029631127353,9.22923749156757,6.83404794064375,8.40146571940354,8.40554145039247,5.68400158633583,8.53021924791704,4.7641297919098,7.45419369931468,7.49382899891484,7.77979253369569,3.25211556473343,8.32663860511715,7.47813663213342,7.59884743347184,7.22537535021274,7.44128841156005,5.80730107278537,7.53359780111157,8.41724964983188,2.207721564291,8.59817898467456,9.38764047074205,7.5203709218669,10.4399200636346,10.2007565540807,7.42451213255684,8.55415890365835,8.27150105116356,8.38284353350834,8.80355907590548,7.92611086441414,8.44837424422541,7.73649574836125,8.3685891725553,7.40983409052469,8.46716491335374,10.4739209543054,7.42332945457878,7.81620562619881,7.60153374750073,4.68225156744414,8.51259264478003,8.59723375836871,8.86221999544859,8.39796499449922,7.42622113426448,7.49019914897066,7.15827920332262,8.44201844874416,7.5392425345598,8.72463327740805,8.55572657078994,5.71286294122053,4.07775493955646,8.29304544576787,5.54780557373261,4.58061417731242,7.42591319536901,7.76426407020628,8.37347136514448,10.2158395189212,7.86391837885177,6.301544801946,8.93367331885997,7.72069501003226,10.9074920928387,7.96216499885236,11.6955332630743,8.36823860484989,10.0557205088864,7.04002117107136,8.21387157814858,11.9418868287294,6.42793183454654,7.01870914236283,10.0920043702894,11.0245349077126,13.0321239107898,11.0830186847904,7.78576805721996,6.96450118430232,4.97861167973363,5.85334826983862,10.8531475900177,8.03250347224048,7.4141281788588,8.26053919731121,8.11976499352601,6.50151773219988,10.6237279975901,7.9198785555705,6.09369506283444,8.03639217077375,8.24679517200026,7.61117373735375,12.4078468300722,7.51378386685959,6.63105886093735,10.3472907863501,7.34311212959489,6.99905032858043,9.89195874529258,11.0921670782702,9.11998198500562,7.8988422342095,4.71533318233057,7.80623786796248,8.00353725195502,7.90536903557321,8.25983235623259,10.2161333173738,8.40003859411762,5.93404472472054,9.50807397042352,10.0838059393673,11.9888720878738,11.7652726487805,7.9465830452599,8.24449412446703,8.69905203484484,11.7158151648386,6.74683105137168,12.7545088119551,10.6641312687587,7.77681448206212,8.06385064370602,10.4321367071673,13.4462781894082,11.5049713302949,7.61954919133336,7.66007562505171,9.04696884458168,8.2243038015719,9.69579360379113,8.26904610129186,6.59780703016647,9.14483759962559,8.13703818202676,9.40400511438528,7.66880252729226,10.2012059727736,8.54269297229388,8.75750282829904,9.49167648986002,9.35797431002656,6.36017669885373,8.83771179208232,12.5358412020405,8.48021449711884,7.77276763765545,11.2984746559569,9.32719732260325,8.04657967769272,6.52091387782199,10.4626278289236,11.8893818165664,9.11593291030373,10.5351835354038,8.53794784116155,8.57968298290934,13.0482297074516,5.02460816576931,10.3647950153358
3.44161943399601,3.28012478996841,4.25587626290935,3.23860789084935,6.26311196682432,5.63954024377177,8.54179811161979,3.41734302395453,13.5358656808858,5.54289717770341,11.0964864031484,1e+08,10.6788851658875,9.55405775572219,5.49093439691495,9.77224220827404,8.94226273900558,12.0480917185832,1.43656548479133,8.95620102407984,11.0485799776488,3.34165489675534,8.74824696846551,1.41954872570275,4.61258171532538,12.0198285627416,9.10627267972939,3.71416772572121,6.90131716931107,11.8062191787701,7.14725319487097,12.5379506848264,8.82188535125064,7.34412787068114,8.34999117698569,8.95535168484081,4.21742007991625,4.89058968778722,11.0560552219004,9.69570107146639,9.65269706817976,10.1765367787863,9.18715168178457,10.7896382293246,7.51809479880541,8.1408455432251,8.58840981991933,10.3088026316656,6.81728806904953,8.35208483539858,8.79614042617076,8.63556440954175,9.09275734801986,10.2853037724635,8.56505082952705,8.43560435433315,11.3098020840176,7.69505996956691,4.29135560512895,8.50646550185493,3.53294396871452,2.50088793970684,7.78678633504269,9.14154135859713,9.08487523368741,7.3275252429135,7.14215953976313,7.79434660899435,8.93754433229656,8.28811150970092,6.83244188061732,8.43559402042826,9.20307471727503,4.51140669389821,8.6123525580506,7.70714838740205,7.25395732537138,9.22213089571216,6.97272660527368,7.6757111179641,4.4371318005959,8.66298951353989,8.13692731919532,8.79699177566083,7.97633629352836,9.46505116331577,8.77458831347402,8.20122757829944,5.5630077187786,8.26143628153268,12.7517905953845,9.06671002188379,9.8540275841416,9.46911506415325,7.75210084086556,9.23734690790521,5.73356941521877,3.03861663870957,7.69588681931019,9.3974579224123,10.0690008626302,10.3549418917888,4.67768536495732,8.92073075438057,6.29456672794184,9.84231673104667,5.37353226048201,9.63680002513647,9.80813413064405,4.81155043822553,12.2627637803193,12.3512005841257,12.1647078293922,5.09891264823645,9.98102296395153,4.68495817955293,10.2685099334575,8.97726845580695,12.1939475707047,12.4362274228657,14.2865821536817,10.5344994870519,9.86143825178437,9.84738394720975,13.261134316348,13.1896037095767,4.06513554101045,8.17720315777944,12.4417849421512,9.70232405152992,9.17712056397564,10.6477950110497,4.55397431069741,11.4489951712106,11.214336411955,5.75267801018726,10.0063919152662,9.12318645256895,14.2365820805407,4.57570254707694,9.52189596645398,9.70967205215488,11.5170536976967,9.95510750026225,10.321449056978,9.83762764868987,10.6262865908874,5.2028144950934,9.39568748077297,13.5894537017578,9.39628192080166,14.0990962192045,5.53184135445505,4.68381053486501,13.4970797267269,9.56228355044335,9.55408571922391,4.23343536312567,11.939838597955,4.94551169737735,13.6102171251576,10.7472790262069,11.494797736706,6.79690531231325,5.68166552205627,4.5750221424281,10.7377928270198,9.28067448552502,11.1076848420363,9.98539318276793,9.82168664708476,10.1157298799717,10.290672684434,10.0263917340509,9.30399533996018,7.6878720471056,9.65732357733577,5.28655888177112,9.96252355581563,10.0395307715241,9.38686071650398,6.14997622342334,11.9113409701473,9.7620725717302,6.02883856296277,6.8570715731688,8.77005122180548,4.0193730422665,7.44604666158338,9.67103374378062,9.85631254271575,13.9107518142153,5.25732369916315,10.9268556855252,4.59122297565924,9.82910775351655,10.4121845932111,5.88698894562141,12.6086620837299,6.59896274657135
9.2875074541703,9.92088303461095,11.0203315714812,9.71251023360131,7.75946705693303,13.6212388391963,6.29339717121979,9.98783877499923,6.34940519055424,8.76542576674193,2.92468418448946,10.6788851658875,1e+08,6.66243382697781,10.6244289287505,2.83538646676816,7.46678284478984,3.69239637214942,10.6584191669737,6.32766624778893,4.14990258429199,9.89411052457988,6.17289497934829,10.8883220941554,8.36735526332586,5.56745236648328,5.14844272317136,10.9480508465876,7.70012389948793,3.63608899098002,7.1103116770506,4.55895691103184,8.34020275999885,6.3141851641316,6.2593826073496,6.16609579373126,9.59926669289453,8.53502431168661,5.87832785939067,8.3244822462755,8.60692553022594,5.58024153621974,8.62270874095773,3.83820520008833,6.28405441516691,7.05787022741539,7.08348659438062,2.07618719166621,8.08533421797992,6.48873292482442,7.09503882076652,6.48269310662467,7.32990596516665,6.0757842942879,6.78908221816673,8.29105420360249,2.97646735231715,8.7474807009303,8.51669511284105,6.79766001322626,9.98700371626565,9.83912487945379,6.4174094993047,8.27952500384299,7.94422046476908,8.46584619141394,8.47222302452473,8.039660326143,8.35617053152083,7.18307628636276,8.09715265789428,6.60329192060319,8.57585713422198,10.8658599109249,6.92825110408364,6.65285103025704,6.53552523378354,4.49952215365918,8.27690724664985,8.79285111878007,8.11149436467928,8.29341308039997,6.51040637765907,7.17023668563711,6.40962113827201,8.63523713331154,7.09559485117062,9.03308127503206,7.37330614670926,4.73394077906958,4.153028973539,8.3249702603385,5.78594146687798,5.11998409419238,6.22222282842333,7.30783189082823,7.58492448601206,10.0028343162365,6.78269800316353,5.80880587686086,8.81896556325005,7.40524598318176,10.4589141642998,7.7124089340184,11.7548826973487,8.04008862602803,9.23681561271509,6.62406879641694,8.30413369019825,11.9744091899105,7.06004231527834,6.30058195579158,8.80138869131917,10.7640167893048,13.482755939397,10.4183816128214,7.38096555004483,5.95238366633221,4.47823048912104,6.44880487925208,10.8639707327088,8.05448351138441,6.57413772149131,7.97260904322801,8.80836451636362,6.48349608050287,10.0857567078433,6.90519993844067,7.34309583577639,7.56448328708769,7.58223531645765,7.38089965642503,12.3839654740968,8.01070008884783,5.97661731339832,9.92222611612613,6.55298817981989,6.42606944241979,9.95093703300745,11.0054449797292,8.95961918239652,5.68617141911454,4.63484063444629,7.54375036399919,7.72969500556211,7.45572598099396,8.09425413450908,9.35759278085514,8.18936401338597,6.58589768497613,9.60519633436282,10.6589879534381,11.9452565085011,11.7390959959306,7.35750424411527,8.18901339041958,8.57538176608351,11.6226786795397,5.63026258329245,12.8432793218942,10.3189367890044,7.57327651875756,7.59444625608399,10.646446801037,13.5928264681403,11.6163925378432,7.32919156140485,6.60892269731583,9.50467490939913,8.06648147131295,9.88543372475834,8.17955007691871,6.58412230547728,9.60422902702669,7.45427969260197,9.43658701949608,7.47510128123776,9.34323549710344,8.24664779320802,8.68951048546288,9.51671055993669,8.6454117774482,5.43603847799386,8.4593198830222,12.9415860934049,7.78745718512656,7.88121805027694,10.913049164827,8.74964695247969,7.49072062547242,6.61492983207511,10.3745000320984,12.1258929994805,9.295301626616,10.3469603838641,8.69703954733418,9.00370160758834,13.4735685380899,5.58749281308344,9.94236018573731
9.18632352186624,9.11135765936026,9.33330565868663,8.92817720910498,5.57576478168443,11.0836982913847,7.29314739679358,9.53430748150645,7.08027292422673,7.74728527568455,5.85488655455353,9.55405775572219,6.66243382697781,1e+08,8.62655461552425,4.72803940071865,11.5061952451985,6.0118951254836,9.65321911699815,2.4126443455466,9.13139160452315,9.04578043527897,7.15157297808354,9.64014924218052,7.72411649076721,7.25039643987974,2.53468636451016,9.68056121305191,10.2423027799025,5.48727801825082,6.59041692736869,7.35993902649084,6.01554549590109,7.18433320332927,6.55857566610289,2.28479538124757,7.87858268421597,7.24764717632041,10.6699016620286,6.24187826617523,5.81526236512843,4.60176477296185,6.0509797381091,9.16650504235928,7.00537938261993,6.02150988941432,6.25996578732247,6.98469680386916,5.50816507320727,7.37857881762978,6.29585443457999,6.271401931118,5.86783488637501,4.01410200355623,6.34387494816408,5.92783516206382,6.62848575579773,5.0995254446054,8.20832607139844,6.30697996776191,8.10922270886576,9.45763367570139,6.66068710310213,6.37120846781547,6.18409361754798,5.12832530191805,5.74413513886646,4.82597334622843,5.96962762231549,6.22608472137005,5.59157670475189,6.41402375533229,5.98347218241634,7.63670201630519,6.3483986096791,7.47783754751981,6.84400622160941,3.85041479760024,5.42846295183466,4.95409526447459,8.09680366774034,6.02592410012722,6.72046448083779,6.41561827187992,6.39570368941972,5.90787884517526,6.1908075327148,5.29763328446304,7.63399081646548,4.67371864431913,8.26516989661798,5.81374573735841,4.06990366822811,2.76267438681052,7.41465831102158,6.27940773730036,6.28645083909755,9.46142571254656,7.22057690724938,6.98008036275084,7.03722419576954,6.93169053907211,9.94863973214723,6.20110576736156,10.5540559685956,7.39589677506131,9.06496894967458,6.30198515487612,5.67603545642425,9.76088004934547,5.65670943049138,10.3274114915677,13.2533360157455,9.86359780209408,9.82899902614959,9.20096611411129,7.25381412521538,7.00565422990016,7.73401220194343,7.63910429854086,13.514380501622,6.23873988939875,7.51288097820754,6.85417504478787,9.84268155212168,9.75736436967986,9.08616520869587,7.21368313397419,5.40640820720316,7.32024307030395,7.50238658960105,7.20052601656948,10.3752631608978,5.76417080806431,9.55783327875615,7.66896399211705,7.6725606383351,6.15898026376252,12.6466327569473,8.77147828584854,7.28100409344629,10.0027491591555,5.70361988444555,6.30616518034726,6.94115496125269,6.8259768392079,7.1176964927388,9.22455329249783,6.81411189204459,8.44971330335764,6.87509724271521,11.9622063138619,9.90356410053918,9.78272929724121,11.1254072897023,5.83872307618193,6.59036442827365,9.99439496347488,10.3530055660789,10.5138786705828,13.783335863842,7.61379308475892,8.83707714104,8.62938025196053,11.3885839752406,9.79605800848454,7.16469860794732,7.68565660348147,7.04852123845609,6.85129873197081,6.91092681277446,6.65815785394396,5.22299915798189,5.85816475848061,7.71868101280965,6.18450708919322,5.81029437561865,8.48251924318093,7.05440853532642,7.00894461477508,6.80122541779125,7.92796987785556,9.53631530260634,7.51296033398875,10.0368721280786,7.33156022610921,5.49225489390948,9.74721675331301,7.60524672551438,7.29033027128548,4.59525691826736,13.5980907942217,9.47909879885701,7.54845050791381,8.83129843044088,5.91928064577779,5.79974532375867,10.3699223706028,6.28598851767532,8.18272780055369
5.96156180351798,5.12163183894373,2.14531049470314,5.0654637389737,6.00035914243015,6.04129733145736,6.89405340107675,3.92493603662875,12.618914053865,2.61201777734133,10.2940189421028,5.49093439691495,10.6244289287505,8.62655461552425,1e+08,9.14605097773024,10.6062517443616,10.7350838907693,4.57768384364582,7.83179749908601,10.3686159970121,7.12866163633466,8.71838366946861,5.18152819877646,5.91530173754621,10.1036593480393,8.54843839279473,4.42638217630282,8.79225333839558,11.3459543881469,7.76010562915168,11.1428190677307,8.95418154321855,8.08333837117999,8.76178485166581,8.71275875670516,5.94247291121959,6.64428618162757,11.4116291272323,9.92072590086164,9.44637026069623,10.3316289506118,9.46071007337189,11.0215001292765,8.06148634575911,8.71979041216023,9.10669006867531,9.56348359302742,6.66243885131979,8.85915070429607,8.59792657177793,8.61139625033579,9.26977491162832,10.1202310845435,8.59967356542426,8.85962766839319,10.2392383473825,7.695351282401,5.12691763437061,8.5440253824189,5.47525711944207,6.39905014090864,8.20317000153552,9.54226870499273,9.26468701407,6.59851596165489,7.75445426813883,7.53229202287696,8.98229900434392,8.22943163032164,6.72191800075675,8.52138952698973,9.41106209956832,4.00686008174824,8.42302742708082,8.55321080613872,7.84213198800302,9.04217998005347,7.41615761949814,7.49771840527667,6.32981958834401,8.92803178631565,8.62347173447484,9.33061126386129,8.07091887009919,9.51557495504432,9.19985731944326,8.40520084226236,6.07097695774016,8.56168563707681,11.7930671816232,9.03206781949216,9.83222137846753,8.72865663204975,8.52848350580276,9.54982278088529,6.55252737115256,5.31023706036171,8.37468191095475,9.87238422569414,10.2094512051778,10.4714998695732,4.54140080147245,9.20476316304048,4.26148112607,10.1966208942845,5.97976677320991,9.77777307167034,9.49227088363117,5.26252507726139,11.7149243520751,11.8930607434888,13.99732179174,5.07975936285731,7.83599724678209,6.1507936128965,10.7366706189222,9.40174347122744,12.0872638765482,10.9584850168086,14.1848876681739,10.5075179623226,10.4896156907752,10.1611929968636,11.8473166650479,12.465176177525,5.65142865343501,8.65741472215985,10.9524394600254,10.3473277809618,9.87065437190254,10.8146917777694,5.34065411820133,10.7202428156604,10.3658220186174,6.54710892871445,10.6607869211532,9.36017717885623,13.9413573770522,4.99310484429013,9.9047004124046,10.9746167724242,11.1314662448706,9.96204710718993,10.5038315094557,10.1643208367693,10.8608045915332,6.37480335033263,9.53914333366774,11.9221511434159,9.51803591032085,12.6689590895701,7.70296564742012,4.7327833059391,13.3172291367127,9.47134375277092,9.75321959860741,4.75281158659088,12.2892501562702,5.58196298379035,13.2035763663079,11.0229319963581,12.0557509325991,4.61471766636933,6.3523966049546,4.91180816112928,10.9786541938435,9.82887342300581,11.2772770383398,10.1344877200863,9.84597722941696,10.259414919418,9.98644036364573,9.48635590364391,10.0090455969203,7.62662367066672,9.59287321093334,7.27229976674769,10.2272383783837,10.4526049964918,9.47876360832274,7.05266877180187,11.4127325536374,10.2039738978658,5.47105702922011,7.84891311189936,8.58264086941454,4.87850896394535,8.18503592545812,10.2958894913312,9.70037155575903,13.1587141466945,5.07266648552762,11.1794961017059,6.12816061670173,9.61144618532855,10.0724593561876,5.95283341747861,11.941851728925,7.5259905500859
8.62531578351125,9.32282394351964,9.81705878162342,8.48874580656871,6.35054740453211,12.1936441983427,5.35198724862109,9.00555116190786,5.40342964851226,7.3594445119841,2.80655192539275,9.77224220827404,2.83538646676816,4.72803940071865,9.14605097773024,1e+08,8.9667267346344,3.57839282831399,9.81871920351209,4.14743786036986,5.88445601009398,8.80884368014837,5.71320373740484,9.93778837888205,7.41779187194967,4.76344236170344,3.88358564464582,9.78159265607404,8.57153234662465,3.06591375955,6.46494120516677,5.13078298524357,7.46940557302985,6.28704156535744,6.03213324666344,4.57129043888824,8.70972558094694,7.90030970687873,7.69745530020626,7.67257357030735,7.43964662161387,5.1998429765175,7.71095816964002,5.83762820096857,6.03794035531489,6.5183871593328,6.63976510297416,3.25014452680353,6.92100320766195,6.64357916157187,6.66311777414657,6.06831563571909,6.43890762758957,5.10007757858122,6.3940180524243,7.5455189356588,3.54220392339378,7.31960608236155,7.85340098058286,6.39404745638695,8.97139221183069,9.00329794035634,6.04821324672214,7.74327713375275,7.38411875049554,7.01814594794443,7.38462288101027,6.39888945491228,7.4343420983639,6.48095940710637,6.97595193884906,6.25224997437768,7.62991771142516,9.01558010314469,6.53787139126756,6.81125674847556,6.25314331326277,4.13672311442415,7.08243601435799,7.23955064760715,7.47775137483506,7.47641320509322,6.33079827831044,6.78670830014564,5.89819611252332,7.58390050521747,6.63153152631579,7.64469996151497,6.83759589965794,4.47531593238593,5.64040399689395,7.31387661126891,4.90814945833409,4.09828704161877,6.39959421573646,6.81971876185016,6.51525799875251,9.09075973891434,6.7442144257687,5.53385090374953,8.17380077634388,6.99299926082817,9.54872135490396,7.16252311570328,10.8304800071424,7.5452880844178,8.5824599973979,6.2823466572972,7.14195442512104,10.5385710839831,5.9076362009587,7.72995832535375,10.6855519626132,9.40277293618337,11.5572938003998,9.5650226179605,7.32334398835246,6.0421410934154,5.21286010053536,6.411900069845,10.7964193303005,7.39699497789848,6.73749874732221,7.46055691153866,8.67959496871661,7.52143537168337,9.02495221347366,6.6396975582925,5.85167744188515,7.34188226672664,7.45063745641056,6.96930442047452,11.0103781037102,6.93840655583278,7.05466820237322,8.48121572753104,6.78106581766477,5.91221736566027,9.84269490088085,9.47152234494682,8.26251231780928,7.28836626789369,4.25538896677884,6.96640971691749,7.10888742647341,7.08617195240202,7.53483969469866,8.72707706885401,7.53872804793945,6.88040211635544,8.51831824690873,10.0059307705509,10.751318497273,10.3804872839937,8.72683946825946,7.03437412124602,7.86242209786019,10.2297943503507,7.60496761191324,11.4902851773596,10.7131514737059,7.22896024054878,8.02382758619509,9.5843614776407,12.2141834015421,10.2026458503969,7.01429589292812,6.81924565171686,8.56381864430686,7.32565372608929,8.74719992880421,7.50432589425278,5.70491315767007,8.14761137472627,7.43701466211003,8.08725989690582,6.77249462949619,8.56152782115369,7.70655707074432,7.98397914933614,8.48681667811563,7.92193426079815,6.84440131520754,8.02648814347367,11.1218215449013,7.1955512202527,6.25227644477346,9.85416540442398,8.24425164973131,7.33124469451182,5.7549746965938,10.5791092331783,10.404604121933,8.59193605000684,9.09218448519729,7.56695217597654,7.70029610249896,11.8162964479545,5.070327494141,8.80764603288945
7.58692689944592,7.8539467097068,10.0824766361801,9.01252844178967,9.04485553770208,12.4852374284732,8.00714214231885,8.61510984639161,12.1341772524369,9.0874427403978,9.09240304347997,8.94226273900558,7.46678284478984,11.5061952451985,10.6062517443616,8.9667267346344,1e+08,9.86987267125562,8.7179355335056,11.0773241369232,6.33264940922438,9.07086892742447,7.46176789958919,9.22239677282903,8.06462974138872,10.4711780542139,9.98595589157161,9.89998230720218,2.94331532762517,10.279557124131,7.77766276725508,9.58057911218657,9.86086834180529,6.13417071165203,7.13841889822478,10.388610000769,8.75041700823942,7.86104042422758,5.5348818680113,10.0100554026513,10.8629387723833,9.37348485161125,10.291645059408,5.70093493285392,6.66088778697501,8.18625254724104,8.34015668405271,7.24683655321958,9.20889582436527,6.47721291658454,8.32374489944561,7.87704901517758,9.35145941333156,10.3209957182262,7.99118147090742,9.51138117265209,8.46783478582731,10.4913283184745,7.38037394186446,7.97744227863039,9.14943968822908,8.14680118103856,7.17545213166458,9.49845496109379,9.30496292914084,10.0891861434239,9.58876904318603,10.2582846136046,10.0038642679929,8.51209692299149,9.15651948829635,7.71551064689742,10.3189633178592,11.4382832975932,8.01364650445687,6.12439923653828,6.75849378666279,9.03012863578326,9.53464453720616,10.687513755164,7.13968676824747,9.67115858594038,7.07338123204503,8.25936693239789,7.51028531019682,10.6351966383519,8.43311275081832,10.853383842667,6.78768533275855,7.93440854586716,8.71851987596287,10.1768626921563,9.7608934500325,9.91723032319713,5.85516138184944,8.87274543287558,8.1908680900475,8.39466470241218,6.68831348337538,7.59895113882009,10.8513191341646,10.1132057554077,8.93442569396361,9.89081476867643,10.3992260121211,9.89997561336604,7.82649555064238,9.42404747014508,11.2192350712269,11.170497286136,12.3048106033657,7.74184532087993,5.13391144031281,10.0723147491909,15.2457196217984,8.94699420516396,9.32175449657575,7.74540595446052,9.15643234713325,10.661143706803,11.9417919908056,10.9677263332153,8.51287526972387,10.0937328452383,11.729252353359,9.47725875349236,8.87597738687641,8.17255529513279,12.6466016473251,9.215118123249,8.72480820887368,10.1029396489541,11.2130698856252,12.3175491409571,7.51282566687781,10.3131269551656,8.39810178118026,9.10977632868903,11.6786489878905,10.6816633519548,10.5487343386062,4.48840386638574,10.2209676996852,10.2214601099864,10.307013946877,9.79789026905981,10.7054023584791,7.85490533712593,10.1742293914042,11.1071251150546,11.4607028145086,12.7890436733165,11.0952496649482,10.7388635369917,8.63359936592723,10.9484370211314,10.5221489006929,10.7657450425433,6.17225039297838,11.6472027936996,10.1119739860345,9.95127250169666,9.06513632605403,10.4054691389582,12.6752279889994,10.971741916875,9.97890073163685,7.96198718268532,12.1653957673716,10.4416850488992,11.9450304639113,10.6572725884122,10.6499588178091,12.450480163775,8.40101932335574,11.0619074204251,10.3317487367516,8.50664671069498,10.2952138124387,10.7451508789958,11.3076953603138,8.27643297221697,7.40739907056615,10.0665382757345,13.016052888546,8.16864374364553,10.7622314334968,9.52113148957589,8.87897019986061,9.19557072505166,10.7333787708641,10.7410101439403,12.0480430954579,11.5309314936189,9.8654136449595,11.4926017776946,12.1290712879653,13.1512753866146,11.2829705367502,10.0119174610102
10.7977054020345,11.0196892436021,11.4670231442151,10.8304820216558,8.59567990758038,14.1374124603199,7.20545553106364,11.0080020380349,5.34444536495406,9.2141959703019,1.84986246961373,12.0480917185832,3.69239637214942,6.0118951254836,10.7350838907693,3.57839282831399,9.86987267125562,1e+08,11.8646969827465,6.30686703193522,5.65535604570582,11.333566682308,6.92257710281685,12.0605391060212,9.74658565367216,4.57655663710828,5.39788817960681,11.8685104797592,9.94427866546406,3.32035177401682,8.68213056424815,3.29571436563296,8.86023175660515,8.09877186073065,7.46651753745562,6.25794694607671,10.7850335292809,10.0914551247177,7.76302352984052,8.70610957737751,8.72485535461264,6.09015095288453,8.961384380664,5.71480440971425,8.03275940669117,8.02361735053222,8.18294462643185,3.84978112079827,8.78381048442909,7.92974775000796,7.9154421751704,7.56059183765351,7.91548548322509,6.20696439499529,7.86929128800075,8.82454826017516,2.78571027438307,9.07168534424379,10.0065620580915,7.85982968676801,11.0863352132036,11.1861908493619,7.94357274271691,8.92082420881654,8.58069734833422,8.78520982379788,9.31815364389956,8.40299646094828,8.82917388594641,8.14445901354615,8.82752070356628,7.78045662371704,8.88650593473309,11.0823975844475,7.78923082312661,8.32671662212178,8.17447787746858,5.24132980556367,9.0250717741173,9.0506027893946,9.84360917895133,8.83465788820371,7.82745883422449,7.94307646360296,7.64910676971776,8.82428334721951,7.99555417811246,9.22355212442292,9.12691361353703,6.30398147039785,4.0393521756347,8.66455447616165,6.03903130596978,5.04804690726102,7.95652476724919,8.14851820926433,8.97575350184384,10.9735911959944,8.40376788235183,6.90409823336279,9.17166942181237,8.04485875335997,11.5220315941899,8.35198166187445,12.1846021330021,8.75042168770749,10.605835758546,7.38231502304197,8.43301530220799,12.5799192200733,6.61421018363538,7.46309566674541,10.8232462519084,11.7116312394255,13.2055475313211,11.700966071014,8.16175628313015,7.4689238648482,5.54601030099317,6.00173205012672,11.2479784161519,8.22564116162047,7.92660815831765,8.59314744893298,8.35416113444641,6.86671803646794,11.3721667005056,8.44001205902502,5.82540386872746,8.47032997581224,8.67486170245737,7.92397569213471,13.089322197958,7.58895114886799,7.05707132207271,10.9073522746412,7.84401540777647,7.45146392208212,10.2358210738094,11.7591191841726,9.47464515792402,8.64395047162369,5.0599355673236,8.01884509028787,8.29370280603618,8.23574460415823,8.53341660011935,10.8394707067926,8.7115772826437,5.7779555322446,9.8433154416742,10.2411423589761,12.7492505816757,12.3735030484261,8.38464984991727,8.52143404010808,8.99360388633712,12.4548877128936,7.36556597183722,13.4188451894403,11.0372970243991,8.10939829270333,8.40993593035495,10.7744576465937,14.2408054170031,12.3291540705064,7.92112020486895,8.12878632241578,9.31958009182609,8.51677671441351,9.94673169010679,8.58385128461789,6.81624688367963,9.31527298617975,8.60262888737982,9.86864318806619,7.92030644014007,10.9654235191243,8.84381410720319,9.09762579588002,9.77396534878138,9.94159025001977,6.79229969180168,9.17568221975379,13.2104823225949,9.19411950983134,8.33731966976559,11.9756136986801,9.82661264350815,8.48791488237179,6.83861917513147,10.7627763512315,12.5601067764125,9.37356755537074,11.3311830148514,8.79484983609234,8.78201382382596,13.7171288891103,5.24654686756564,10.9854899003367
3.74875498400131,2.85270544709335,3.35881997544319,3.50571628375719,6.30658350261617,5.47186395504267,8.19738368769822,2.88948747094017,13.6343842347329,4.80838139349092,10.9984911837524,1.43656548479133,10.6584191669737,9.65321911699815,4.57768384364582,9.81871920351209,8.7179355335056,11.8646969827465,1e+08,9.05259423145853,10.5821658630348,4.39642032458041,8.81122816410662,1.68545985781508,4.7983609772276,11.7520285279051,9.0866708803177,3.15052288586339,6.59263187474108,11.8996795470147,7.19817391930028,12.2675534671339,8.9028110396569,7.27207424309432,8.37672134092689,9.14320511009701,4.40266228608923,4.98177546181882,10.7018700843792,9.88022542730213,9.79041363565084,10.3437751612941,9.35616346582476,10.5203534753386,7.4845379193587,8.31954128878654,8.73614090893082,10.0431223056087,6.78996263507604,8.25422898348704,8.73252971962906,8.63833684114744,9.26187604914391,10.4231072178492,8.55403793614462,8.64898768539672,11.0781200414594,7.89290789677376,3.97466752894028,8.49346806965521,3.80195290774274,3.23316239492612,7.76756202975986,9.27628305230189,9.17875784873779,7.29647790180975,7.33528421655856,8.01059288666748,9.01745816725341,8.24218224269531,6.79839952012493,8.41751167841974,9.36634285404212,4.66587044590129,8.52103608281136,7.63278260479631,7.20167470220801,9.14254521617323,7.15663528477939,7.87150575200175,4.62691381834759,8.75908614317361,8.12797119036291,8.91636749823062,7.9254234629071,9.63328622364736,8.91253342301159,8.47881261224389,5.33401817359677,8.22964065290097,12.4713201051706,9.16917498855,9.99751046576504,9.38026413741893,7.69245586103464,9.38517516891729,5.91659149225269,3.07146372701334,7.60515675260711,9.59156906534375,10.1823819333687,10.4402648469306,4.06344251477436,8.96683050127056,5.26483286836917,9.99669728066385,5.12593244508376,9.68149715311207,9.95245056180501,4.89050924324254,12.4443934728432,11.9510223060872,12.122348265207,5.01033734064363,9.82985790050126,4.72279892685729,10.3613347984394,8.95135528112688,12.1885935687498,12.1227683058927,14.3818639617727,10.6471391882679,9.92637513667503,9.98724023423953,12.9372037592018,12.8851126060629,4.23584807334822,8.14567231190212,12.4688807399746,9.85141621899843,9.25366453480296,10.7845233635733,4.61568668709725,11.5100055526571,10.6955493273165,6.12384988777485,10.0823408726117,9.20468377535277,14.317976716856,4.75930337607214,9.68648530732597,9.60288302556912,11.5767229391675,10.0413877238403,10.5144595906769,9.92931903824723,10.8103250150825,5.10369759841927,9.47469009520503,13.2267048091301,9.60627009674998,13.9643123365384,6.10859269721543,4.55675632408955,13.2249597707723,9.75889402211322,9.66693027656512,4.17415077136156,11.6591454379639,4.94480992164609,13.4183734648208,10.9194786965088,11.5847555831385,6.07436223972205,5.56958575716943,4.41301430514155,10.8914930108482,9.24470883731196,11.3889121188225,10.151932351673,10.048726874602,10.2587716776187,10.3937506999511,10.2040319524241,9.37112674739673,7.79394537233368,9.72873237300854,5.62983413896829,10.097162582544,10.2775367010066,9.56246537561271,6.2192457424604,11.5372773466178,9.89295754942974,6.05977071884567,6.98381202962177,9.06282596337964,3.75518276443575,7.45189343929778,9.78141382641455,9.9508998243495,13.709390635625,5.3484072221821,11.1556329383832,4.88956369693712,9.9861394449189,10.6154040127625,5.92786906817761,12.6675432513897,6.91617464868618
8.59481678192492,8.87419046439632,8.68219496351739,8.12046615222504,5.29028709640725,10.3006098369533,6.43862158724578,8.68808716605361,6.8088074701714,6.87074967241415,5.88435496087141,8.95620102407984,6.32766624778893,2.4126443455466,7.83179749908601,4.14743786036986,11.0773241369232,6.30686703193522,9.05259423145853,1e+08,8.55249850058748,8.56969084354785,7.27330381103892,9.0313634610302,7.0534413918117,6.53629895714729,2.97456273843447,8.94014852329198,9.92310560097553,5.42859056790243,6.45293409448708,7.11722873585008,6.34741063347293,6.95013986768469,6.74485504274299,3.30882398391956,7.69379786005264,7.03429171685144,10.0244806420227,6.68687841394526,6.13277455886007,5.27872866038949,6.5517379591649,8.89222497886451,6.74455026307213,6.26667896488889,6.3040244559308,6.39434258507865,5.44709127247147,7.40971985066677,6.34779436504017,6.0827702349378,6.10570045256634,4.72171113206801,6.22564611699445,6.3584013603625,6.29533047160684,5.49325247349524,7.55581062563569,6.18772973500464,7.86010276837643,9.05610442614984,6.44355961633757,6.81512175629031,6.46845783018076,5.20504913444209,5.93495239489284,4.9709192096235,6.27979836881349,6.10415538615322,5.54389933435384,6.26045250786681,6.45314634804305,7.15638195401454,6.39104209914587,7.52818684026858,6.63629531695121,4.19923811300758,5.54447175863642,5.28020189966073,7.56422124043099,6.3937001267423,6.868957179063,6.91414339548444,6.13812230113018,6.34422210039478,6.42405553505832,5.88214828495782,7.00871920547114,4.86057282411856,7.95799785629847,6.11063231268071,4.70617147547747,3.49083787075634,7.37985907895361,6.54776217451771,6.03279266413719,9.06278890253713,7.08693450351057,7.0652450081971,7.50307157089532,7.19039600877128,9.14611469081532,6.66495757242794,9.86534320598753,7.63767485104573,8.50270942140026,6.65463301933951,6.14438301351609,9.21711257677772,5.92846844048981,9.8744643642882,13.0644791318338,8.9131521286416,8.73050753029356,8.7846592491093,7.74790638364688,7.07570242021872,7.63749635692668,7.39121084425938,12.6307874181747,6.87073602764099,7.66430943656693,7.25827959046739,9.42371875239936,9.43656252472404,8.52457014993652,7.03090851538486,5.80305061644118,7.72584115999205,7.81426645211985,7.50760288897152,9.72801972734234,6.11874507064913,9.03138599963546,7.29226465069174,7.89104996431258,6.36263851219447,11.8451517051636,8.20854620817736,7.66807681855579,9.46280660847602,5.8342413664576,6.70970169826276,7.23700647490333,7.16076414653042,7.49571318576352,8.64777154090589,7.16808540192267,8.14288288775794,7.2850674259016,11.148943246385,9.67480809878328,9.19348726810823,10.7392696076817,6.21258214399823,7.15133603140597,9.19041539552181,10.1741561473774,9.97135041127673,12.8428879606153,7.92996531233306,9.17767065023328,8.35426605848826,10.5645735787918,9.10239855507099,7.53279253921448,7.68474584565189,7.80010226357493,7.21013171898794,7.3857042453103,7.11796447183414,5.62714266581305,6.42254478535939,8.01434774592065,6.36398010728698,6.26967856657076,8.09744112265011,7.41509248061786,7.53763373507485,7.25502199193945,7.68852200789824,9.11574220209595,7.81270660190465,9.27004059350799,7.21650286909067,5.51555404938677,9.07014496253962,7.74418764016286,7.6447298544171,5.22146647978162,12.6597395479347,8.81419678172817,8.12585813660044,8.40640469399118,6.39028986730253,6.42854270998887,9.81675476565748,6.38250606233141,7.93070256372888
9.97383107667762,10.0948203211394,10.8595628131047,10.3904194672164,9.32945411325945,13.4823544031459,6.9052839308988,9.96571797153985,8.47451644341516,8.71027618574892,5.26675220364844,11.0485799776488,4.14990258429199,9.13139160452315,10.3686159970121,5.88445601009398,6.33264940922438,5.65535604570582,10.5821658630348,8.55249850058748,1e+08,11.1089953720378,8.16585395392525,11.2055743557831,9.49421076450029,6.20640099879891,7.37951497530644,10.6561297831127,7.01739639710591,6.48943801268812,8.42409826203834,5.15945268792325,9.75714170098688,7.10981110126586,7.68142515358699,8.79125348111356,10.4359045889357,9.44066629036296,3.36273101566426,10.0736610862065,10.2377351032399,8.0800067906309,10.2098951812386,2.70133375700038,7.39024471320491,8.84273481836892,8.74504062423421,2.71632633610619,9.34938414628046,7.3747024016046,8.31883934405545,7.88540188794663,9.12465556673378,8.43421610047048,8.11779505644378,10.0799519493846,4.10612013914175,10.5488424969509,8.82657826643211,8.10391259288486,10.8453584539832,10.5666693765263,7.51314398795797,9.84935290112701,9.46683624346875,9.88087295789236,10.105486384178,10.0801015267737,9.79512526384999,8.35352388964018,9.33816951700274,7.90156087352993,10.1618673849104,11.9179707798177,8.05046451470682,7.53517186871416,7.53852471020732,6.3735103976148,9.90177782444849,10.6284417471086,9.08575549182807,9.69586354016735,7.77237090605656,8.83639545158968,7.53552611146361,10.2726434721413,8.77164278463202,10.950126975024,7.89761239881794,6.49677988703995,3.96185323386175,9.81798969463208,8.07999610267937,7.12289484050944,7.16320862497013,9.10464084371869,8.97978259235992,10.431751581315,7.50035310526412,7.86805270557703,10.4103649721012,9.06592152819523,10.2777709423255,9.26691145957367,10.8941509654034,9.75021495267136,9.60750766426372,8.3878125569831,10.3276326706937,12.6498324556498,9.64745630519871,4.81249819656537,7.78622268102529,11.1864972561984,13.8533011777871,11.0141864864294,9.05789406750989,7.35603220197602,6.32872773326056,6.95444648536548,11.0853165230157,9.93147638859471,8.01887645874108,9.74146909716603,8.64099360613487,6.00575458548958,10.8707564882115,7.98546846861693,9.73683304857171,9.2918855878738,8.97572885815155,9.2431016050697,12.8533155497895,9.91691713280212,4.30487268492642,11.3967135737459,8.06136428211547,8.3016303729456,10.4491687444519,11.9612955467575,10.579905058546,5.24392520135114,7.25387691853274,9.37538660548355,9.73507185012041,9.08079913966053,9.97132733881881,9.82568357497785,9.75472909952424,6.56540604106777,11.3716463922437,10.8310122414708,13.0901842768517,12.226457487754,6.4313133589734,10.2820078891852,10.2542353875266,11.9889097305104,4.5324592608617,13.2510445402131,9.31785102362232,9.49376447720891,8.9749925185132,10.6160707576133,13.4854541295093,11.9096357584613,9.28024178881098,7.63057027311021,11.6324271639614,9.95063642621603,11.7083961223118,9.99279886419113,8.84296638213164,11.5805150851804,8.83581796138609,10.9541850526573,9.30914971050446,10.4395500108328,9.92544658774058,10.652472145814,11.2273143565371,9.7551768672291,4.40599197698766,9.96126289579958,13.4835115316245,9.17826259996399,10.3054381005064,11.1393800436485,9.78890730049956,9.05397214688851,8.83087666880066,9.54101480067982,12.8470786196572,11.17679397138,11.3584051633693,10.6233714378858,11.1387011124602,13.9457862837244,8.01855835147491,11.3185237253298
3.49932040065772,5.23034245443277,6.28479611249227,3.08515903967328,6.30848445463865,7.25411105314166,8.43369777305856,4.61723725189709,12.2464563254417,6.47511831893033,10.4268796649424,3.34165489675534,9.89411052457988,9.04578043527897,7.12866163633466,8.80884368014837,9.07086892742447,11.333566682308,4.39642032458041,8.56969084354785,11.1089953720378,1e+08,7.85605510018445,4.10558048435362,4.46120386728791,11.5055534077432,8.90899106276534,4.99509120147207,7.53022539803054,10.8186602703415,6.95061712252615,12.3851881757675,8.90416209291063,7.34004787354973,7.89485921725046,8.48983252720249,4.94717456056329,5.91593702836145,11.3868655522421,9.5671072801137,9.46535157421317,9.7117925296975,9.13340710697396,10.6281652154109,7.3479524170139,7.94322312737032,8.36224665344294,9.93098150838124,7.19845953308551,8.35175487865735,8.93816398850247,8.48974767928133,8.69862111111381,9.80341637652224,8.53902304017007,8.45011397392068,10.996058916029,7.72507748698408,5.00607787435752,8.49570917155765,4.26878395610135,2.30569492412907,7.61047646463752,9.21069784291157,9.13451874085475,7.6812817161394,7.24707828166284,7.45776358364965,8.98689329524743,8.32236412321757,7.23795706842701,8.38654560006194,9.13159815518482,5.08025420620285,8.78653496012739,7.72494575815651,7.25508744233835,9.15960978073348,7.03903573060956,7.66671568829048,4.784415548254,8.75976492265648,7.89134063673476,8.53598045707042,7.88008662049136,9.31493623905452,8.57702191603228,8.10327749818358,5.79599815196745,8.10096743562973,12.5712909173729,9.02375868124587,9.3761038642832,9.43226989471773,7.61235338890997,9.00249132159721,5.32763901104121,3.47609712925515,7.84380481594416,8.50161403842566,9.93682179038993,9.99418339774602,5.90186903837389,9.00597931959109,8.31798364585852,9.47168262120309,5.88471843412607,9.35292013393871,9.492909444037,5.60089404905547,11.3307130315727,12.4935105645266,11.8978835948404,5.26713411960982,10.4098698784637,5.51354516917936,9.98329748777743,8.75755092222755,11.4409286886704,12.5095922511507,13.0586246482815,10.2640879596907,9.51010664500399,9.58883050536056,13.3408983768217,13.1634125397126,4.49968238711449,8.14726835511144,11.6723392774416,9.33477836129966,8.995265710103,10.0543604131224,5.56043099773282,11.0071180538296,11.5850996164143,5.37377598256942,9.57124743177478,8.74009618873867,12.938239383607,5.0735428751539,9.36658217383768,9.52849626686462,10.7195684270923,9.66650044899136,9.73917553048411,9.53511509501812,10.1132409062037,5.61764760454339,9.2843228663445,13.583695748154,9.27768786504037,13.3309668238528,5.55970641142005,5.7303621578496,13.384188379317,9.12074659007501,9.4540350310695,5.19577971344292,11.911340380838,6.25582118191505,12.9153169593008,10.0970368181505,11.0269990989066,8.38655305833699,7.17628477854061,5.81410875902551,10.1687204216708,9.1399350080645,10.6016519116495,9.49839710481113,9.61763294645397,9.82872208155974,9.78917318194461,9.79564469414806,9.11311756280575,7.98464906213561,9.48713362031314,5.43207461788104,9.7007965601837,9.63778902819459,9.30176968588476,6.37265194921215,11.9211171645688,9.57791837453722,6.77471210528388,6.97211898292223,8.17464082634453,5.24234111084791,7.89074108879887,9.41062650018848,9.57236759821804,13.1948852958423,5.88705376093393,10.4806092961898,4.72477866009426,9.63828450023916,10.0227820788096,7.00955348729653,11.7946558907931,6.49717050881427
6.64708043105182,7.24586791224675,8.62217657051986,7.55965045001386,4.70669210465103,12.0285326967579,4.67098939762403,7.86511583411689,9.41167418135484,7.1437157939192,6.60303464076958,8.74824696846551,6.17289497934829,7.15157297808354,8.71838366946861,5.71320373740484,7.46176789958919,6.92257710281685,8.81122816410662,7.27330381103892,8.16585395392525,7.85605510018445,1e+08,8.75599648255923,5.94466891707917,8.54559289352465,6.82373657709004,9.82603380954086,6.78547227355313,7.72532040662017,5.0423318941764,7.93205157680871,6.59621765553377,4.74678989502818,3.9586829419941,5.97785401340164,6.80178517220263,6.43317516376935,9.38724323779959,6.3720461780409,7.12689918685394,5.79714924473651,6.90719291978805,7.66204506872099,4.37248144395058,4.41944447498129,5.05812600809311,6.63032565302852,5.71888192987062,4.50844812595015,5.0515139684302,4.57290630325477,5.58731521940454,6.6559223540123,4.82262842759209,5.63233899499619,6.76975465493592,6.1281458925539,6.6492273786836,4.8575661779532,7.40944601772619,7.4917584594941,4.90503933864118,6.18672222643489,5.92598542469425,5.90719271504451,5.96468842930335,5.23971035023433,6.64970530568513,5.53916348982077,5.73455147438615,4.64504173618592,6.89938382108684,8.1741609282231,4.90839281150617,4.472392487798,4.64082460796601,6.97999446890067,5.82422175097991,6.1467446985983,5.85536694884654,6.53653144714523,4.24515693436684,4.63644275697883,4.79357175201366,7.0540286474445,4.98019963791208,6.5208728606177,5.49845373668474,5.91009419094832,8.46415542913352,6.72958918301238,6.30354655185408,6.89758989622573,4.10354037756482,5.10064410693528,5.36744952950426,7.31331125063007,5.35489072042855,3.71953698603393,7.66778114184708,7.38587150367145,8.33411052260561,7.02015424094312,10.1260312141773,6.72930694538405,6.50025850185271,6.50069670372757,6.91420500218526,8.9353000990984,8.72758394202731,9.51593506859128,10.1805827852156,8.47179754569553,13.0680467135989,7.38366103403824,6.63742794863684,5.65489681964356,7.9159808954167,8.94268940475678,12.0211457389947,7.49985436110719,6.84510159212953,6.82009880497394,10.9796719716481,9.90999327854015,6.93191787558842,6.38018219694502,7.94957663429818,6.33465294138134,6.34751472493674,7.02317996442129,9.53566603539289,9.07719461925908,8.72688070075133,6.92062058136793,6.62144611577979,5.96945652579557,11.211639110353,7.83369845168764,7.28099192541606,7.62136489691134,7.38503935102495,6.81095889018379,6.65358126134694,7.14909512792022,7.4959446152326,6.73040137895004,6.92320546349912,9.96958343488088,7.57232040272104,11.5174461493503,8.9880666317916,8.62857070930702,10.4514559637708,6.62271854907367,7.08131978064194,9.34215150240279,8.63956798581534,10.0197739787602,11.6903897889219,6.61453513187276,7.27888941788448,8.23175873158455,12.366483604854,9.64057882344554,6.74943037344294,6.69803687779512,8.14150252480127,6.79258600711221,7.94298319959653,7.29317599739725,6.90304872144429,7.91058455501718,6.05946150214074,7.39522363809005,6.86435051839627,6.63067829162615,7.1647963794734,7.04445048884641,7.45219516433379,5.43596036153073,8.6208793421469,7.29137733497683,10.9247167695012,5.3199190547069,5.49192414924591,8.44713434573314,6.46600713088915,6.78709836872136,7.31938944479874,11.6459418166624,9.65475279325036,8.00617107478584,7.67125330308742,7.44090261659718,7.65966509159303,11.3366518204432,8.33927451246621,6.95901197444541
3.85230909675667,3.36273794824026,3.87604160271422,3.13014161804134,6.2602723967962,5.65475348194981,8.5844210536315,3.15010058781229,13.735022873285,5.45364886267739,11.1231523803569,1.41954872570275,10.8883220941554,9.64014924218052,5.18152819877646,9.93778837888205,9.22239677282903,12.0605391060212,1.68545985781508,9.0313634610302,11.2055743557831,4.10558048435362,8.75599648255923,1e+08,4.53991807119136,12.1598100694949,9.17143482978718,4.14225830236651,7.15950940983909,12.0160932578991,7.56220011257222,12.4667991456102,8.90826726748637,7.61389850974459,8.60792657137149,9.09430787868263,4.73394655467732,5.2290859773675,11.2049339844928,9.79203295108749,9.73865407240814,10.3521698349696,9.31765418334684,10.9298875641241,7.77594404706854,8.30239101479761,8.67144486477636,10.4736647021833,6.79229197173296,8.43837752557615,8.868717780467,8.70036786011474,9.26486053110582,10.4495516546373,8.61824748322846,8.51532042651166,11.321622961949,7.75187897831222,4.6535413273043,8.5581584486902,4.24629229503194,2.9494940093402,8.06200356709309,9.23569880518098,9.14463567881379,7.31070114888402,7.16830038689971,7.87248257463653,9.01723438184693,8.35282299985265,6.80940504907481,8.50314963195383,9.32748711667644,4.29878139034805,8.70936744202218,7.92789884552215,7.49160242995657,9.32383594459756,6.9927869819846,7.71159224220156,4.88842069011689,8.76649745655945,8.36174812499125,8.92438649276712,8.08371645053128,9.58062163571478,8.92428298036568,8.3109561995769,5.89740398196279,8.57265185101534,12.7911289299744,9.15224813344303,10.0370991912771,9.57607591922003,7.98724902188103,9.36894728336978,6.38119399015349,2.83646334010707,7.92249455997277,9.64362907746862,10.1671575972651,10.5415565767241,4.59083072604563,8.99042377669368,5.96099518686481,9.9798292878809,5.4457881017854,9.7698296955664,9.88318363917346,4.66105442006584,12.4194623495923,12.4651466232106,12.490405627918,5.19912659350114,9.96896975181968,4.96154511922649,10.3990405570624,9.18064503346763,12.4231759552518,12.3754746219408,14.5041684579602,10.6178886069934,10.1232212084214,9.95710488691114,13.2604302452983,13.2605277215827,4.26628809500821,8.4343142409548,12.3906419559614,9.85883926277601,9.36117420487408,10.8260852648227,4.43277764116606,11.5633387166795,11.2448585377886,6.10612420438583,10.2547880868763,9.30866939773941,14.4488551608556,4.61634036281253,9.61565400863166,10.1380557045072,11.7255098696516,10.0259491754561,10.4983685574835,10.0269648057579,10.7996189072819,5.3026039822651,9.46326819642137,13.5668226449112,9.44286606148854,14.2253224771925,5.54782815489769,4.43786357483198,13.6744438250645,9.66788572839048,9.63944802948848,4.29261690802505,12.0900256870675,4.76538472227369,13.8848636606643,10.8807263811728,11.6483161462154,6.4084704456154,5.83817300090918,4.57911689250023,10.8977491503732,9.53531118131293,11.1784530210903,10.1091672561521,9.8606900700633,10.2519282187801,10.4007391366198,10.0236763449764,9.474123371292,7.69359006931322,9.74431769118227,5.73195167731999,10.1168394177082,10.1537835377798,9.42542069568329,6.18422894706109,12.0512099243622,9.92006506164063,5.98630830731929,6.94162833119507,8.86604761415241,4.03397287063672,7.54914392315571,9.87971009764054,9.94061408987232,14.1304467866452,5.22998287677584,11.0283472630628,4.618964096152,9.88308847254681,10.4388889253452,5.6971857737355,12.7519407910166,6.94511237598196
3.30348640260654,4.54968811376993,5.48128640949228,3.27084170401605,4.15672326608529,8.1655917632786,6.31973371287009,3.97537721268608,11.3648554151556,4.68913967790298,9.04605377183163,4.61258171532538,8.36735526332586,7.72411649076721,5.91530173754621,7.41779187194967,8.06462974138872,9.74658565367216,4.7983609772276,7.0534413918117,9.49421076450029,4.46120386728791,5.94466891707917,4.53991807119136,1e+08,9.9539919221449,7.1288410145166,5.86696708849083,6.24879782772582,9.99598516529221,5.76365846288383,10.6673527067794,8.00206160091396,5.93709607206538,6.70443981075504,7.31684591951963,5.07178669371609,4.71046206266827,10.3345140619503,8.5942063224742,8.8351119976464,8.53836160891082,8.58599848567118,9.4344871032848,5.83166689452808,6.73693845884247,6.90851453866487,8.2614531229427,5.4995930534272,6.70401498248241,7.3134408562963,6.76029401103831,8.01953887430086,8.89759386195352,6.76842184231048,7.21521991060856,9.40105523960374,6.75650205753777,2.62007070310315,6.74074813938616,4.38257813150651,4.47021560009414,6.3832137873623,8.08641729356986,7.80226059322529,6.17508648930977,5.89303998726844,6.36868385791613,8.08285730196111,6.88891584800079,5.52533969593807,6.62038545411076,8.5732741436969,5.140590316715,7.23011732645675,6.15820032979688,5.73180669027065,7.41019835377111,5.71171597893913,6.64429220464343,3.45830100346005,7.93530498080543,6.53698242685311,7.51260088912127,6.40603064773439,8.79293893347388,7.45707795216302,7.537782732925,3.49170464662487,6.54771322872895,10.929461136806,8.24784358208017,8.53704873683406,7.84856803955817,6.09217220651797,7.78411703003872,4.60771026164409,4.04006869422824,6.48391788231877,7.81116799064201,9.16164081096598,9.19108928505604,4.58762876247092,7.99769688131276,7.03206358170486,8.69607987749064,3.93252176327624,8.26897556736408,8.50871362113352,5.47579191405519,10.2339924603646,10.8306981502195,11.7363541005848,4.83080447610092,10.0459188574938,4.97014486686637,8.92540855078238,7.40657348098325,10.0331405604357,10.5959002157683,13.1003374744405,9.33177214540337,8.60536603183757,8.7022788505292,11.9537434631009,11.5733458805134,3.96759830542167,7.0573376528926,10.1769186207826,8.48829106739633,8.14755446152866,9.32687350231125,5.84068435282157,9.94478990992705,9.74476391648818,4.95231291692296,8.66601938375701,7.6698494627952,12.6627594315723,4.86636603534098,8.67778482534676,8.51133110068516,9.36052595786232,8.46069155697229,9.04970627418745,8.70362345361786,9.53049790485981,4.0763514229321,8.44162950191629,11.7125802771017,8.64630487594986,12.6164830987355,6.34929584730029,5.2239480955805,11.8629940253859,8.23988615392366,8.52298447867106,5.51613700439043,10.5048203656547,6.50238767189911,12.6423613697962,9.40230712426192,10.2029367099446,6.44258031829147,8.4265631976306,6.18532380137603,9.35034819052034,8.08069026894106,10.1873969190783,8.7555646129457,9.06267709680036,9.06964909640232,8.64941038653183,9.03557822356146,8.14965150725204,7.01840860773426,8.35661270689871,5.25529475467206,8.91030968287292,8.96769320484251,8.55352871740814,5.03916399946335,10.0087081854169,8.93706465816525,7.42361406546549,5.80251435180988,7.21571224161326,4.63156250070524,6.91057140520216,8.60052422427881,8.40089767108655,12.8462183504617,6.2623454100359,10.0010572339153,4.59340894329941,8.84806105401708,9.25503360974418,7.70407900990745,10.4780575101909,6.23908852659398
11.0957503324747,11.2752497530978,11.2953665944896,10.8849427404741,9.27500064104664,12.9095894717168,7.51513976686799,10.9687624532666,4.93063613181065,8.39965043693622,4.42661698857343,12.0198285627416,5.56745236648328,7.25039643987974,10.1036593480393,4.76344236170344,10.4711780542139,4.57655663710828,11.7520285279051,6.53629895714729,6.20640099879891,11.5055534077432,8.54559289352465,12.1598100694949,9.9539919221449,1e+08,6.90754055351839,11.3003430223042,10.6116940336637,5.03155891653373,9.58068717293034,4.92020275452006,10.1357001822272,9.1808508112988,8.99194177036083,7.6696067048548,11.4723357620311,10.4995053375047,7.93269830540971,10.1021117006858,9.87770730043573,8.07696823687257,10.1932000510708,6.90454107291928,9.13956946189106,9.34442987814157,9.69001401085645,4.87077725167598,9.68177657999795,9.54096906637446,9.25917939304021,8.93615153566088,9.20395036163628,8.00094729163417,9.27334002975328,10.0344069283282,4.6379066830029,10.0029471254212,9.84029075401272,9.24418601887717,11.1378512220893,11.4879004823716,9.04061760095353,10.3744018268635,10.0096702683817,9.54462584850654,10.4671729140961,9.28199021195946,10.0959233333986,9.39665737542223,9.75038269382759,9.16736202719767,10.1002677682307,10.9838563434759,9.06702461072587,9.74743353124874,9.26944468911411,6.98483119270784,10.0646964032152,9.91077510377825,9.73355759748756,10.0889575936065,9.33244060865092,9.62598624305143,8.85066559311496,9.99952814370141,9.42991577182114,10.1538454647534,9.43668410831511,7.76835210301882,5.55489687361929,9.86068533582294,7.74792224886827,6.5464623446623,9.33266699453675,9.6791863640229,9.22641086020655,11.4157396982989,9.60042034479544,8.35163598027288,10.8924442162855,9.75442917365934,11.1626902873995,10.3222001814134,11.5468438672143,10.4044768791492,10.8817953950074,9.47976903535427,10.0396208846965,12.2338261688536,7.3853288011808,7.62992540289585,11.6893258579525,10.9007910258502,11.8098279762106,12.0091692264754,10.1065297703912,9.25656807421413,6.33905247094228,6.6092438330261,9.93511089629023,10.1945720771492,9.59182964382,10.4649652872782,7.62059961901047,7.03007322720814,11.4499933861556,9.84016241190207,7.15217411356723,10.3545162024953,10.5362881307654,9.69161392284496,12.6244536750451,8.6515129316215,7.54811107664799,11.0845015575894,9.5775476315198,9.30137677166277,8.90995547992328,11.5767373113936,11.067232135112,9.53243031059572,6.55714485128896,9.96723699091017,10.0887804953401,10.0666926475025,10.3139117511774,11.1782596877894,10.5865057522949,6.0812782451257,11.2215627235146,8.20346098181357,12.9211986545054,12.0960536657219,7.92702627830397,10.1300654395328,10.71077855725,11.8315075246498,8.46335952249775,12.9688034607204,9.49466937064811,10.0007341406547,10.3031609707134,10.9063663669907,13.1754151159375,11.6622997680765,9.84843691747453,9.75520695374886,10.9446977714602,10.2610269356665,11.3733301098319,10.2973137358103,8.8243656133012,10.6801151550909,10.4081512644102,10.8461369581868,9.88328755488953,11.5240854877149,10.5431422409299,10.8007313781692,11.2578557074852,11.0488943133146,6.96542521253486,10.9102061835963,12.1955145580748,10.525639728169,9.36399774641636,11.7472084547285,11.2639398842647,10.265744828645,8.93237773650991,9.14809543491761,11.8872829713643,11.0095054143368,11.4120088003663,10.447543821488,10.3423384761768,13.0260114993646,6.31455453846054,11.2966015048327
8.73282943476668,8.58461836672454,9.16853384707005,8.57158528400271,5.40554610910228,11.3047722539443,6.51791849927535,9.00499998746152,7.34045019687027,7.31923080160087,4.92805858145292,9.10627267972939,5.14844272317136,2.53468636451016,8.54843839279473,3.88358564464582,9.98595589157161,5.39788817960681,9.0866708803177,2.97456273843447,7.37951497530644,8.90899106276534,6.82373657709004,9.17143482978718,7.1288410145166,6.90754055351839,1e+08,9.28967507604292,8.69754808950783,5.0168254913865,5.90746245419277,6.53948941633833,6.06424607641516,6.10249090915633,6.00419548400371,2.78914531992161,7.75322718917721,6.52281265084441,8.91608925124242,6.62672810354407,6.35411912749864,4.40995253682939,6.42556814050521,7.38241150396592,5.99350519091178,5.88358750266232,5.88048364000359,5.35352067447654,5.32629215230743,6.35177215112586,5.89707183653518,5.73643455487664,5.9854867796909,4.02550911673041,5.77473297511874,6.29796939630688,5.43612690032111,5.72472575116733,7.43323477855351,5.75008843739899,8.1252024501644,9.0581500865406,5.82265575449179,6.42137190508367,6.17974811355305,5.43178383901477,5.66196045257227,5.44627909557381,6.0617707495554,5.64601208560191,5.36242811781522,5.7585153913892,6.37753621124309,8.22605734231797,5.8835865439793,6.42507462781168,5.86251616459319,1.57485557812441,5.45796977323783,5.67905195609948,7.39078672650923,6.08145870111437,6.00433169473498,6.20015354320607,5.61360956124312,6.43055513978237,6.00870497185675,6.17608488701251,6.60328547495354,2.93664626229614,7.08406023084733,6.07767850918149,4.01261714255365,1.48693716896259,6.36621998508488,6.16883420110629,6.06519714315949,9.06934778542759,6.17331777771046,6.69836387292883,7.09202332041264,6.55214745620139,9.35047495600205,5.68792821328063,10.0749512253843,7.20315010315426,8.37028467518062,5.62549775324841,6.06114423061299,10.0027263163505,6.01340330793105,8.7429023571006,11.9183676785407,9.69876644102023,10.6655101586205,8.90155173522387,6.7359158006588,5.82960287801331,6.61121111014133,6.71386032466844,13.3849739297552,6.26664925081847,6.58502197475554,6.65498052899083,9.29926003395185,8.5068676994747,8.78130520320166,6.16143385194154,6.16286836396741,6.8794689213225,6.86632314770844,6.97155794206839,10.5389539069047,6.06852795993526,7.85019781435279,7.93322783086796,6.80254076327653,5.4393682615608,12.510811930043,8.99129072515644,7.32341458833588,8.22876851492118,4.94662076708432,6.04543404216548,6.93674679659179,6.35767571928794,7.12545146040177,8.52365854087081,6.60611397518635,7.5522582784212,7.3484191277754,12.088785855146,10.1784776059637,9.87709889440116,9.82895456435761,6.1451470870689,6.59093166806282,9.95822520691585,8.62189727295942,10.7617333917435,13.2181937210472,7.4548838005928,8.29506179045266,8.40572114046161,11.4767999856005,9.71481894419924,6.93336356744831,6.56784649162421,7.77434006196067,6.86406570888697,7.57506139435878,6.65658601211294,5.01159759440267,6.81400182097186,7.03633649317536,6.39698270940756,5.54950518296367,8.05840738126299,6.94303841025562,7.21751544770287,7.20498383935526,7.38840150417539,7.89200872086867,7.31139214461091,10.5585237657293,6.6018150124367,5.96224279553495,9.39349245082882,7.08257175284532,6.73014089538531,4.18628951790354,13.174806803195,9.89298476583915,7.96318135484109,8.68926809274464,6.32995611379013,6.57571057037366,10.8679359006398,5.95553278852663,8.34900369090573
5.42398101685739,5.44135396896085,4.34807302272333,3.9533856909741,7.119007289795,4.85817479083313,8.30859666372191,3.68769822889974,13.0093899229242,4.61791106630428,11.1825128334017,3.71416772572121,10.9480508465876,9.68056121305191,4.42638217630282,9.78159265607404,9.89998230720218,11.8685104797592,3.15052288586339,8.94014852329198,10.6561297831127,4.99509120147207,9.82603380954086,4.14225830236651,5.86696708849083,11.3003430223042,9.28967507604292,1e+08,7.99737222854972,11.7973721257222,7.78792570603787,12.5919582992666,9.52795276058737,8.05647409387174,9.07778741171781,9.62937299997601,5.79894868292933,6.61564147149733,11.2305827934437,10.8262683873918,10.1471316372544,11.0972225080585,10.0409688139895,10.9867476902495,8.20233628005281,9.48497053889454,9.61325313097313,10.0616192402267,7.50484391676818,9.18667031961132,9.61914803974851,9.38989380246296,9.85163810016024,10.7459698256423,9.36064406237965,9.92367149525015,11.276778594912,8.6892217055662,4.88042619013133,9.29887550448736,5.28468994240485,4.85882213297745,8.29530009229839,10.3170381410342,10.1230458628375,7.95688648391636,8.20044778409349,8.63965995497271,9.58232108640282,8.72782115282282,7.53677587348369,9.22026019528678,10.0048458994691,5.15494825901984,9.42305577161847,8.67158581628841,7.97551227729912,9.46946652993578,7.94335070471214,8.58387031212812,6.36174671786426,9.46349199523962,8.91549386067404,9.94436219825908,8.47078621131215,10.1571417158366,9.87753756169487,9.33463638014807,5.93164598909824,8.65063238642412,12.734914553517,9.65826374820534,10.3988998911519,9.7087504350798,8.65260990981478,10.34229648701,6.4549136430027,4.47314969642392,8.35983904247224,10.3740444275679,10.8776163078284,10.9286300396292,4.50913977434036,9.79635483430575,5.44117159165,10.778182089709,6.07604963483509,10.3294260162399,10.4994336853099,5.69546225607642,12.3991731063282,12.1941885475068,13.0355958328441,4.92044396100632,8.36296736916522,6.01769173478183,11.2330496489666,9.68715365204032,12.3606386651565,12.2769442501817,14.008491693817,11.2495737464203,10.5748480258263,10.7790396290545,12.8429822968939,13.0895198399991,5.48824198174649,8.72324142397711,12.4922865901737,10.744548785158,10.1383578086308,11.3144584332866,5.31573559374055,11.5341822221511,10.9156604601356,6.7380280190609,10.7916935621299,9.80669984363209,13.9344551019095,5.58570030141694,10.5164563823383,10.1738784892714,11.686839580151,10.6813202273638,11.1468906782699,10.4986120943695,11.3747379353524,6.1261623368188,10.2086384805495,13.156204475247,10.395525826312,13.403169983666,7.33767790273948,5.42346222626786,13.4144609081656,10.3056342622356,10.4451655628578,4.43853603247646,12.23610333338,5.80422065412166,13.0325893918743,11.6233525306471,12.4354426421329,6.95793432441315,4.94772286987706,4.66884594673644,11.5497830842714,9.86900506581452,12.1245217888988,10.7563744069653,10.7524199181557,10.9247511165554,10.7897937352301,10.6965870762917,10.3503089247556,8.48528374599064,10.3645223017237,6.87127486640988,10.8072282053382,11.132842619217,10.3235584537185,7.50874301342174,11.757606086799,10.6731176973909,5.59379363580394,8.2747544213177,9.78108497972616,4.57748427482576,8.63739870664594,10.5829064043132,10.4462188356747,13.3002291121727,5.41260085949202,11.8955932945057,5.844749146014,10.5892114163044,11.128526703642,5.9002513300674,12.7081496872169,7.91489567965497
6.0365271151159,5.7509403522563,8.20517511071787,7.32413860745432,7.08847537855504,10.7355238550058,6.98738977454414,6.90742346031703,12.3436415619742,7.36113988021758,9.1105322341132,6.90131716931107,7.70012389948793,10.2423027799025,8.79225333839558,8.57153234662465,2.94331532762517,9.94427866546406,6.59263187474108,9.92310560097553,7.01739639710591,7.53022539803054,6.78547227355313,7.15950940983909,6.24879782772582,10.6116940336637,8.69754808950783,7.99737222854972,1e+08,10.3032892414697,5.97568541498898,10.0077949978718,8.37712190919578,4.62088110840951,6.04169715222983,9.07400067397938,6.72029057188937,5.49575203366219,6.75424072975032,8.99579010281191,9.62378989697975,8.64232884117264,8.97974355422133,6.48136326678899,5.13567541753868,6.98107911825101,7.14312640510162,7.35058487267376,7.25628242858168,5.21163540360416,7.11072335230379,6.81138136062968,8.25566393332725,9.35780542075776,6.7804171832507,8.23859611292035,8.64499361347658,8.73742247216361,5.36501180902083,6.76464857426271,7.2115353939264,6.47511801613324,5.77359668356793,8.222451404599,8.08570997598046,8.21836113280351,7.62696288360014,8.64649395126258,8.5400827923345,7.0179249694694,7.18614768938681,6.50442330265606,9.02170387517513,9.56169697252634,6.801939990748,4.55609751099941,5.09319837612364,7.89871063747209,7.6460966074889,8.9259199230053,5.29514590776009,8.21275682289585,5.74692976277775,7.11695734835144,6.1705960916941,9.39769688707638,7.34065250684853,9.27456506964898,4.72418782367202,6.51445294977815,9.4878526946279,8.82552524819326,8.85740076519543,8.76632295143559,4.49976015819678,7.79943481657826,6.37791800080623,6.66129657905452,5.1265173839285,7.21914693062148,9.70234057636133,9.24196854412205,7.08033692145982,8.46956793909202,8.6060279399608,8.94722006766043,5.90671258285215,8.38207441332614,9.93399318757207,9.34144791215558,11.772497048244,8.35889478118527,7.20997365932114,8.50119860186568,13.873737422302,6.90266247646493,8.44332935167011,6.64355312370244,9.30997441307471,10.403973868717,13.1295003054607,9.90701980804448,7.73044904583229,8.99951568249053,11.7504616872015,9.97704682669583,6.87961930407749,6.76820404092325,12.0961261406113,8.22873762497526,7.58174695819495,9.41267598916972,9.41945390488231,11.4667928835916,7.60722257984629,8.47503994963636,7.72397500932375,7.93277008036829,12.7637587379925,8.74628986400435,9.31620855016895,4.8303445813785,9.81863841300747,9.12644086961795,9.46841706669189,8.75545712752905,9.88539416889481,5.96446581934282,8.92675943454429,11.2362270587161,10.080391957174,13.3229109539076,9.46370386901103,8.86316487518003,9.5286084478926,9.6584910694218,9.18127213526611,8.97477821103866,7.0526145739718,9.82700257244983,11.492759084156,9.37253888170835,8.89696411188008,8.47733113097178,10.9829177158711,9.08515620455268,9.30288401406887,6.99693567244243,11.2436634869853,9.41700432787234,10.6450701554889,9.58132937486089,9.67440256663159,11.0889632808006,7.35120823201663,9.16778289639451,9.09321352430945,6.55769448281108,9.23326509655112,9.68019308823256,9.88339938689571,6.37442437189338,7.81587754294389,9.01076158697196,11.2824943098433,6.395976976733,9.40422214619631,7.54751242007722,7.08668459281201,8.17797873533631,9.56343807350452,12.0368446861972,10.2418466930181,10.679061924107,7.97172900113075,10.1950536109207,10.9179348568599,11.3312712000038,11.0895873536276,8.36910935589746
10.9769720615696,11.4203268886531,12.0379352674863,10.8993500583665,8.59831613457016,13.737421822721,7.73703993291812,11.4391139678651,3.91421743997881,9.82338643333987,2.77314381372796,11.8062191787701,3.63608899098002,5.48727801825082,11.3459543881469,3.06591375955,10.279557124131,3.32035177401682,11.8996795470147,5.42859056790243,6.48943801268812,10.8186602703415,7.72532040662017,12.0160932578991,9.99598516529221,5.03155891653373,5.0168254913865,11.7973721257222,10.3032892414697,1e+08,8.28530171520832,4.3215139455333,8.15573124561941,7.90225950803033,7.32184071128373,5.44153129254308,10.5884204377212,9.75206204194308,7.83341119880883,8.02578874421588,7.77037736037884,5.166624422938,8.07616071211843,6.18156931502525,7.84644196962137,7.61408499962617,7.69374172804962,4.4294951931657,8.57063368854281,8.00149204992402,7.72968813416447,7.32209259522358,7.04310532941946,4.91800746713786,7.64850253918674,8.43832855314084,3.44445870396234,8.53469007210502,10.3426190244306,7.63362072456175,11.0184137185297,11.0595686990947,7.5312453318749,8.3664223850978,8.10352302700668,8.57041249513457,8.86033681046467,7.88854883685441,8.10460503622807,7.74482367904364,8.62199395283705,7.57872768823885,7.9928961714732,11.0770046471957,7.63484170635351,8.37890857490883,7.97724441433165,4.92789203023109,8.56368593051288,8.53533278321577,9.81934159432651,8.12308783489085,7.71280545210651,7.6208768666579,7.34239754304417,7.86622502331386,7.45152116130648,8.51491625852595,9.32640162810318,5.85301501616379,4.76546619298419,7.85147294438883,4.78208117498029,4.72170588184032,8.00353346219189,7.60908767787531,8.57633957231866,11.3471380688386,8.13447846859842,6.39896633152891,8.74628493143406,7.49388202176074,12.0080903487084,8.10671479950851,12.8723582689261,8.34935317276323,11.0362714137355,7.15646856431259,7.97563561398802,12.7165157198462,5.61126459295723,7.9594551398974,10.7355527495952,11.8825282230095,12.7863916241476,11.7063078810389,7.8696885548015,7.38712461306128,5.10527468108715,6.47922806189463,10.8879534484987,7.74625744279766,7.47838593155173,8.162702082245,8.5821571566135,7.19297929812926,11.4106757819678,8.16267171199645,5.9305539233988,8.12194414430451,8.41597778795355,7.43075421583349,13.151255020712,7.05557346275904,7.86627542542229,10.6265937167638,7.50260263130183,7.10020905271146,9.91618175809248,11.7444791744222,9.06137860507988,8.34893262297844,4.39533437393518,7.76316718805973,7.71544779735059,7.7707908902676,7.89048069979036,11.1069019660407,8.41917194738631,6.39440830843583,9.36771504287904,10.2802253357172,12.5395908206955,12.6434182380337,8.49136921519395,7.97863283080324,8.64432062745619,12.4785702445725,7.75630102015161,13.4798356114274,11.1436892890372,7.69880733100598,8.13799273402179,11.5986848958521,13.8457273905381,12.2785308241976,7.41727960249235,7.88319445490913,8.65616425304285,8.07472398890692,9.44871658526445,8.0521515651896,6.36553773730358,8.84244495453143,8.41966829993159,9.52622986084852,7.58686950138502,10.5558905552171,8.36711788116294,8.59022015668126,9.35551081768238,10.0277608793999,7.36920625502895,8.71523918047761,12.9895013194552,9.05488062279585,7.75114562730621,12.1911455968605,9.71788300213574,8.05733659132821,6.40496456863617,10.94803995288,12.4730651770357,8.83012701291268,11.3132899202147,8.24916468968626,8.1994402921972,13.5461954167731,4.49546340548718,10.6316333845859
6.37823735206965,6.48287773717143,7.78292783906364,7.06099832670958,3.14712152636711,10.1346358068899,4.47262411707093,7.32272816720989,10.1722252390655,6.45917150909251,8.14869936408426,7.14725319487097,7.1103116770506,6.59041692736869,7.76010562915168,6.46494120516677,7.77766276725508,8.68213056424815,7.19817391930028,6.45293409448708,8.42409826203834,6.95061712252615,5.0423318941764,7.56220011257222,5.76365846288383,9.58068717293034,5.90746245419277,7.78792570603787,5.97568541498898,8.28530171520832,1e+08,9.34536573464996,4.14748580336216,2.09452606841437,2.58157076430761,5.17035847789423,4.42977982262919,3.56189173118176,9.4495978983134,5.31660528854923,5.2361184198212,5.37423020869161,4.94787975034562,8.34800259912504,1.65122742896323,3.47216810958205,3.46940586271742,7.12042721523845,3.14444445295855,3.11869058019575,3.42452407663657,3.27482888246428,4.02791214838303,5.46697259389946,3.16972565934939,4.8595130014651,7.79001650046492,4.24143108815366,5.40212403769882,3.19885407520086,5.94381241046066,6.9950042487858,1.79752771707855,4.52479980377061,4.35876607220315,3.76097044824335,3.34892637112668,3.83466560631783,4.22787570511645,2.857714993153,3.09271340080419,2.97707389621238,4.95392519820905,7.4330721404009,3.27511197546588,2.48109997281497,1.5696992362503,5.98005041614727,3.4156598346993,4.35211513290476,5.19012063831073,4.19004212342087,2.25707654915911,3.78286993992424,2.53786751516449,5.22046077585112,3.66727724932516,5.01953638221393,3.39850244459132,3.7882523662129,9.49629440859288,4.56870287275328,5.2492203049578,6.10225013821642,2.55238057122868,3.87923183964882,2.58737452921585,7.24561460693569,2.32416239626861,4.53800075338432,6.566536678901,6.46808042113169,7.42095718209562,5.66661955485682,9.00146152544718,6.14729715665652,5.57945189841696,5.74206583055505,5.9500751056024,8.30498312416095,8.96858321893399,9.73126128336827,10.6614224053919,7.95117632363158,11.4801007935276,5.59203836828653,6.1258930410284,4.60022876343493,8.50124509721739,9.31031673812223,13.5333500650472,6.64698451338074,5.89069743087436,5.90204814753786,11.350391964268,10.4446251651724,5.83235251908243,4.29951221293605,9.10304826508383,5.70216920496221,5.16348474771547,6.73947970891619,8.70789967535285,8.66439585689908,8.73556391293206,5.45580454774619,6.07439841255316,4.89068805076074,12.8309624408443,6.85576216383977,6.24929590621315,6.54014611403004,7.61125638739496,6.0788027596523,6.14531022314268,5.9749567223904,6.85203220645588,5.70630386647746,5.81600207886486,10.4757214468719,6.50931690568489,12.7716375599424,8.53634850558672,7.96708387151109,10.8174899358905,5.57066546600312,5.86424708905825,8.3232224706702,9.02037529165157,9.10261097871064,12.8122535656777,6.80183894711233,7.55735104157112,7.47980645090703,10.5502287316254,8.40352473831735,6.51190265054407,5.2999140767543,8.00074668134832,6.16691856287835,7.03259499775776,6.37203710456762,6.42954927099299,7.07074239429776,5.21358556078857,5.47998858008482,5.75919132676591,4.33703820101467,6.12671558846319,6.4887650637427,6.22231814193422,4.10882803840057,8.86501388716659,6.15209957566586,9.78667157736836,3.89118336498869,5.08409270985294,7.26708805834398,4.43688541490802,5.71792752443927,6.58170837506983,12.9915597920486,8.70329752752759,7.75226845864555,6.97576902094842,6.34127813443848,7.01509363613944,10.1456904534118,8.9526460613795,5.61372904224089
11.5063939411971,11.3962399817072,11.8346323677382,11.7404635779319,9.37818260367748,14.2769350380246,7.70949686778591,11.6240228003068,6.20903715114692,9.86499994566724,3.32970498821159,12.5379506848264,4.55895691103184,7.35993902649084,11.1428190677307,5.13078298524357,9.58057911218657,3.29571436563296,12.2675534671339,7.11722873585008,5.15945268792325,12.3851881757675,7.93205157680871,12.4667991456102,10.6673527067794,4.92020275452006,6.53948941633833,12.5919582992666,10.0077949978718,4.3215139455333,9.34536573464996,1e+08,8.92078305225928,8.35568199263145,7.95603497577927,7.22777961871472,11.3096516965184,10.3867511282607,6.42029560826371,8.49332611146746,8.77215806508052,6.26900839019224,8.95292027174724,5.42585436628557,8.47649892826513,8.14385102968846,8.27912657238097,4.36865293594029,9.20014990397613,8.0800795824166,7.77252530968402,7.56981602024172,8.0568190227214,6.65201321402905,7.8794748428649,8.82976774438156,2.23608918480795,9.52879652745779,10.7470834698276,7.85502786963741,11.7923728580013,11.9662615608759,8.2731025099553,8.79884170690315,8.437250779098,9.21313810076351,9.83652028367221,9.06279093623197,8.9006470568695,8.34019719108816,9.23371424384443,7.82484308810087,8.88041922126338,11.8783245663658,7.63542962102355,8.65972107488449,8.54288549212676,6.0871936872582,9.53209973840752,9.5703956973562,10.4192590351896,8.85641368425678,8.24962310305765,8.13851087004386,7.86086315913024,8.8258304378695,7.98046640728231,9.58732070928731,9.87747766836386,7.17632045327412,2.05658055370412,8.70521802725656,6.40010058912854,5.86824219394395,8.30753198360533,8.14722597048513,9.86726808496446,11.8332859220799,8.54620846819504,7.22320075358936,9.48279418848902,8.46190528746438,12.1241060079503,8.86861208143774,12.3390811781989,9.11516215764008,11.2935347090218,8.02625846716974,9.04685221564886,13.2370297984668,7.61127363334674,6.70172674268492,10.100883036069,12.526278154189,13.5816632425848,12.2201826748729,8.47120607496891,8.05505740978046,6.07957774889775,5.61115471713828,11.0848554116968,8.65865238312168,8.33531270168972,8.96286380656301,7.79759019211265,6.0295322238218,12.0860176928531,8.97773783044377,6.90092044790411,8.89671298869601,9.08033113935227,8.42686885927352,13.6503987455552,8.34526582767303,6.58103823031486,11.8342643093072,8.2885588835832,8.21149876091983,10.2415346666761,12.4995878973882,9.82440954746449,8.54833613644975,6.1854476655097,8.57631982758168,8.748159053594,8.74961800312429,8.93947142540186,11.5013144652907,9.14576242840299,5.04661528865988,10.2353687478545,10.1423913305702,13.4074053020819,12.9752941597927,7.52611637245043,9.19527815327681,9.44005338411216,13.106896881196,6.77554169177082,13.8516958739275,10.6227715224752,8.49876151377332,8.36118610356381,11.0619363880432,14.5338258690953,12.9030187605209,8.31252809210216,8.51194464091299,9.67657603242496,9.07807817415287,10.3527784304186,8.98999597266248,7.67351715161539,9.87720942773478,8.93729741051045,10.4719828060772,8.49119726016455,11.5058312533069,9.19124597918962,9.50585914764772,10.1844543821338,10.5233252753319,6.42272037271681,9.43695615919155,13.8100890293418,9.70273222986211,9.09914632745166,12.5992334536795,10.1607027330004,8.87067467428454,7.73739814147955,10.3311490233709,13.272233269982,9.66767787347713,12.2090063019289,9.26219708015566,9.35010968989315,14.2164218849262,6.0287256290658,11.5661827650832
8.83551579147324,8.28598361513803,9.14754135482644,9.01663315623795,4.68741592837635,10.3796639478784,6.63306681174558,9.36661268834985,9.6997840451912,8.35358597011917,8.45917618648739,8.82188535125064,8.34020275999885,6.01554549590109,8.95418154321855,7.46940557302985,9.86086834180529,8.86023175660515,8.9028110396569,6.34741063347293,9.75714170098688,8.90416209291063,6.59621765553377,8.90826726748637,8.00206160091396,10.1357001822272,6.06424607641516,9.52795276058737,8.37712190919578,8.15573124561941,4.14748580336216,8.92078305225928,1e+08,4.31210850689991,3.6309498926966,4.58611931870116,6.09006848282855,5.32663131224635,10.3330740620853,2.44072058276433,1.65613852042564,4.10352895665765,1.30718653418223,9.49935086198454,4.40257203127424,2.90765908799303,2.45099751344803,8.50891437134459,2.90477858222738,4.04074448148178,2.47086488272517,3.04847345974393,1.91846907099898,3.75940386569562,2.8227816422229,3.24595783779841,7.97174511100742,2.64969655244621,8.17722496501879,2.77080959720407,7.83709368510186,8.89679196876405,3.53676330689868,1.83711758115697,1.84212246629509,3.02373128218902,2.67829631796383,3.23960889775688,0.253206471691542,2.30354671566628,2.89057504991691,3.01730594985916,1.2746098575959,8.15523973634356,2.64708141939862,4.48777132225168,3.98398725198162,6.23877531555643,2.64237887201713,2.94637740639129,7.85895534220352,0.462705706897788,3.51549821115108,2.63925921842112,3.15601310502672,1.56106081634081,2.26044326190624,2.93125074257932,6.76224786876126,5.19470831568759,9.44586582566424,0.781039009266578,3.65492774202455,5.94181948807141,4.67702621988266,2.34072146024373,5.49342686233255,9.10071794641596,3.72221699357141,4.90889041047577,5.61392487899828,6.292102621476,9.63352434030869,5.51024626657368,10.2107622260782,5.98729985092939,8.1237122658823,6.02626993390645,5.11797736051055,9.51397875592935,8.50922443493593,10.5959392898059,11.5514117849951,10.0961140398815,11.272606504702,7.53288146427023,5.81849772124256,6.01687122391475,9.18829401613092,9.19685045878856,14.0963599095985,5.56025909222189,6.57496721092286,5.35483622212984,11.2142489219792,10.7144651260289,8.0861994871007,5.94137945116254,8.39107654233339,5.67755958757669,5.52522284557871,6.57860799041375,9.93140600668229,8.10539606834526,9.88865631102597,7.18992337542177,6.75190775499881,5.65915884848511,13.4070669980218,8.36215800944769,5.55442619315486,8.72788224429098,8.05334614401376,5.74331119251463,5.78204407896662,5.94239982912192,6.21479995696766,8.15207820512706,5.39649024420053,10.2843588663707,5.41359053557946,13.0970742078057,9.31082396553542,9.31184030323962,11.3091624843719,4.96542959051436,5.04792689213144,9.98258611310693,9.9539175415316,9.96265802062221,13.9289240054066,6.5025649184526,7.22576863070587,8.28172731293342,11.2903343274398,9.76364878708455,6.13864973251782,6.43400909394309,6.34754481660341,5.76345583392717,5.68991975981286,5.6662050124052,6.28390522408292,5.59298207368929,5.65936275087034,5.22178549404815,5.37706978944616,6.50745174578204,5.61389906849135,5.61430119839917,5.05436326698706,6.0067590972687,10.0074545989447,5.71679430785483,10.4774616579206,5.50459830371075,5.24761951564415,9.21651098602995,5.08713307425817,5.8102983027988,6.38597443469986,13.936631151314,9.74702941366388,6.51094872449495,8.64285296250479,5.19468421245322,5.54519601970424,10.4751982273815,8.8221053834537,6.92977503115497
6.49580276453567,6.51536736042011,8.02643664694885,7.23600341573797,4.11336964984714,10.3877100859117,4.38453609318062,7.31281524947003,9.85663240069022,6.70752556757296,7.49927406739352,7.34412787068114,6.3141851641316,7.18433320332927,8.08333837117999,6.28704156535744,6.13417071165203,8.09877186073065,7.27207424309432,6.95013986768469,7.10981110126586,7.34004787354973,4.74678989502818,7.61389850974459,5.93709607206538,9.1808508112988,6.10249090915633,8.05647409387174,4.62088110840951,7.90225950803033,2.09452606841437,8.35568199263145,4.31210850689991,1e+08,1.98876835236042,5.75573489603448,5.1542132512437,4.04411093417999,7.81807992652938,5.26682693992966,5.47920017432526,5.19264174609941,5.11623960323206,6.91424135824139,0.935821174905945,3.3946723796074,3.08845376294294,6.24645274592961,3.73035228238805,1.579773057996,3.05135542849414,2.64658486874625,4.08672485105552,5.5589687984088,2.60886371740875,5.02673403930243,6.8493442215887,5.11320463571162,5.61618796918014,2.61944727791359,6.66651974048019,7.04564548820431,1.18557924865119,4.48252544344091,4.21769827851823,4.63183946025987,4.06628171068179,4.84215445661253,4.41983595746959,2.65408273061417,3.6619421218286,2.29870180530386,5.11961990402282,8.17835427892998,2.80801075090199,1.18146778019142,0.727645530534279,5.74806865737709,4.08212281020171,5.29551089018181,5.46520660364609,4.28106952766517,1.54745234177161,3.43391835132649,1.78737481282578,5.41809381677144,3.39711851854046,5.76481625688232,3.63145241584084,3.81830033171019,8.29550045041605,4.73027509085807,5.20508089416339,6.19802967869488,1.0502377554212,3.75633687906972,3.91131956216819,7.2177005581227,0.942577230667319,4.01449713343244,6.71764280772515,6.44190511243117,7.52113071452725,5.81298781000404,8.94066063943997,6.16449704190832,5.70546987332209,5.70456042998451,6.49196339078673,8.83423819150344,9.11322544115316,8.47487671875227,8.95780628758165,8.36081493369638,12.0318815103461,6.09852650792447,5.84512363721536,4.27841574203692,7.87544201000284,8.7156122062372,12.7381502371786,6.77057372497736,5.54247935055896,5.96931581590677,10.7167631776154,9.39878117711722,6.36030101800766,4.30871417318676,9.22553149106747,5.56230072315579,4.98508933819299,6.660622904393,9.14847821947518,8.88383549810945,7.59063258818561,6.55549647414352,5.66355451108049,5.03704747806914,12.0921022273739,7.64965580387539,6.44765963650301,5.20487170519151,7.48895929012299,6.16435561410546,6.27990561407913,5.98332811994033,6.9096621326384,5.79907616180456,5.95484068215301,9.72696376320091,6.99638233384616,12.293011345795,8.93273481116543,8.42166805225457,9.57039413154885,6.15044205641845,6.12859830058369,8.79883658428347,7.51435125186897,9.51960848701422,11.82547315778,6.61466297885416,6.84202400597641,7.67535849989432,10.8838463137032,8.85123268061607,6.38133902600192,4.88361508620203,8.22413368214477,6.34858247289635,7.51075143130789,6.5561535827647,6.65363375721272,7.71224178123212,4.90354000635901,6.29983223129613,5.99528406812865,5.00668120333789,6.24614651164509,6.69522211510511,6.69345409191035,4.45514767807846,7.7183648245733,6.1767470050357,10.417731413614,4.13160193302865,5.98925951083096,7.59524302997626,4.65284035195924,5.59193265638909,6.83630522576376,12.0681253106365,9.38934239751371,7.8445085968321,7.46541607801525,6.82678264883172,7.51435563034091,10.6553056527541,8.74813117764452,6.44912076026657
7.23292580525785,7.33232134724392,8.76214200837844,8.03743038292068,4.27878503586756,11.1321160362627,4.74780437430511,8.27597209572136,9.14325991335463,7.4821523269504,7.10921121562284,8.34999117698569,6.2593826073496,6.55857566610289,8.76178485166581,6.03213324666344,7.13841889822478,7.46651753745562,8.37672134092689,6.74485504274299,7.68142515358699,7.89485921725046,3.9586829419941,8.60792657137149,6.70443981075504,8.99194177036083,6.00419548400371,9.07778741171781,6.04169715222983,7.32184071128373,2.58157076430761,7.95603497577927,3.6309498926966,1.98876835236042,1e+08,5.06475125254518,5.61783012940858,5.00718073052935,8.60620907741985,4.09165427769539,4.52473215180778,4.1047456599062,4.1837806978174,7.38379754867265,1.995091825645,2.39536744438304,2.33567343003236,6.51661391483847,3.81450231698558,1.78409397764515,2.31418919479847,2.01111071571339,2.94159832531741,4.62648971780774,2.11150382854385,4.11229063601973,6.63201873544577,4.49469421143856,6.66960148445851,2.1336056169414,7.14084599269865,7.76996609480183,1.66702572935996,3.54583902583464,3.30451102350061,4.35385652402392,3.94181203776128,4.13288409985942,3.71486190168058,2.54657798038761,3.77830977235442,1.90690097763322,4.18377178025625,8.41948871474688,2.13531607481378,1.92652362197591,1.96505802519944,5.83466969237808,3.90664251055775,4.69786801203308,6.32391732625301,3.5836279371616,0.737891970513255,2.10476231223423,1.92462969779193,4.43010317487847,2.26506899885686,4.92488107703987,4.87672771635215,4.1027604454327,8.09850517718725,3.91614198482862,4.27503929069746,5.9432303034066,1.73059614597732,2.53813980641759,4.21959530751446,7.92045139224158,2.10234929203826,2.77581763665721,6.10719224904903,5.98854324790061,8.5619622675614,5.59276930273573,9.89172237887386,5.61486198387062,6.62730742625609,5.35349833499542,5.74046632844153,9.30846301796351,8.44124807063916,8.95513466445706,9.36324643635234,9.1110460126372,12.2925396759863,6.81623103731457,5.27476561215646,4.39867585604495,7.69865891946208,8.63550799884257,12.5943321040641,6.03720203132479,5.4338505318079,5.36779453709416,10.7210155679299,9.52277323817849,7.11057953339398,4.76574007543332,8.3199413956049,5.0266312927149,4.70470979094614,6.00933955653043,9.74071321790317,8.37550025026237,8.24933062183902,6.74300916935429,5.44378913132587,4.78148822928623,11.8579454651832,8.09234262448578,5.90196323053535,6.25207153215557,7.06942578958653,5.61988695642523,5.47562642302129,5.60154369555198,6.18719520425498,6.74070202065997,5.49612717297009,9.60097838983879,6.36076797362727,12.0630670406467,9.18703610055497,8.98823724671883,9.8385466452747,5.41149593853156,5.53574463944038,9.54703782614627,7.95765943681559,10.0561535842957,12.0193385019567,5.81693175619534,6.20170086213949,8.18494389285592,11.6908258986904,9.61545821199271,5.61268817498424,5.08777119906071,7.20137913411708,5.65437175035005,6.76380414355662,5.91059979986783,6.07276182678678,6.90033511539502,4.60573148868298,6.20449424333351,5.49632615964697,5.68086745251566,5.65902920286592,5.89127497354727,6.04830078665542,4.94484243486903,8.18613836265074,5.68868551854826,10.8833719696279,4.52935912261356,5.33441645874801,8.49329144229399,4.83465141679493,5.22496302503878,6.43767180899927,12.1381087673365,9.83741303403479,6.95703212953147,8.03207921249733,6.12900601997685,6.62631021585249,11.1176061007219,8.18523444975499,6.52577853403834
